-3,-4,2,40,26,-2,-2,4,1652970154.3640988
-1,-1,5,0,26,3,0,-12,1652970154.3640988
2,1,2,-3,-12,-8,-7,-1,1652970154.3760583
-1,1,1,14,-15,-3,0,-3,1652970154.3760583
0,1,-4,-26,-38,7,-2,5,1652970154.3760583
3,2,6,53,49,2,2,4,1652970154.3760583
-2,0,-6,-69,-27,-3,-2,-3,1652970154.3810437
0,0,2,21,0,-4,1,2,1652970154.3810437
0,-1,0,-4,-15,-5,1,-5,1652970154.3810437
0,-2,4,40,2,-2,1,-1,1652970154.3840363
1,0,0,-24,13,-5,1,-2,1652970154.3910182
0,-4,0,22,-23,4,0,1,1652970154.3910182
1,-1,-4,-40,9,4,5,1,1652970154.3970377
-2,-1,-12,-60,-16,-8,-6,-2,1652970154.3970377
-1,0,11,28,38,11,6,7,1652970154.4249623
-8,-5,-3,21,-35,-9,-8,-5,1652970154.4249623
-4,-2,2,11,-5,2,-2,-2,1652970154.4249623
0,0,6,23,16,-4,0,0,1652970154.4249623
0,-2,-11,-31,-20,-10,-3,-1,1652970154.4389274
2,3,11,27,21,2,1,0,1652970154.4389274
0,-2,-12,-24,-13,1,0,-1,1652970154.4389274
-1,-1,-2,10,14,-5,-3,-1,1652970154.4389274
-5,-3,-3,-16,-41,-8,-5,-4,1652970154.4528883
-1,-3,-3,32,46,5,0,0,1652970154.4528883
0,9,25,17,4,-5,-5,-1,1652970154.4638612
-1,-2,-16,-24,-33,-9,-2,3,1652970154.4638612
0,3,1,28,62,4,2,0,1652970154.479821
0,-2,-10,-46,-70,-5,1,0,1652970154.479821
2,-1,-3,-24,18,3,2,-1,1652970154.479821
-4,-6,11,38,-13,0,1,0,1652970154.479821
-2,0,-11,-25,19,1,-2,-2,1652970154.4997637
1,6,14,13,25,5,1,1,1652970154.4997637
-5,-2,-1,-18,-16,0,0,-3,1652970154.5007608
-2,-4,-18,-52,-12,1,-2,-3,1652970154.5007608
-2,1,4,41,14,-2,0,2,1652970154.512737
0,7,9,18,-35,-4,0,1,1652970154.512737
-3,-3,-4,-25,18,-8,2,-1,1652970154.522702
-1,-1,1,37,-29,1,-1,2,1652970154.522702
-3,-6,-4,-65,4,6,-2,0,1652970154.5366638
-2,-7,-11,-1,29,-6,-2,-2,1652970154.5366638
-3,-4,-6,34,-23,-7,-1,-2,1652970154.5416512
4,10,16,59,6,4,7,0,1652970154.544642
-2,-6,-17,-22,5,-5,-1,-3,1652970154.5618048
1,2,14,17,29,-1,0,2,1652970154.5618048
-2,-10,-13,-49,-5,2,-1,-1,1652970154.5618048
3,2,-2,-12,-13,-8,-5,0,1652970154.5618048
0,3,42,84,-7,6,0,-2,1652970154.5697825
-2,1,-4,-15,10,-2,1,-1,1652970154.5697825
2,5,5,33,-15,12,0,0,1652970154.582766
-2,-2,-5,-17,7,-31,-3,-2,1652970154.5857399
-2,-5,-22,-52,-25,-1,-4,-3,1652970154.6297975
-3,-4,4,3,11,1,-2,-4,1652970154.6297975
-2,-10,-17,37,0,-7,-2,-3,1652970154.6418095
0,-3,-10,-36,24,6,-1,-1,1652970154.6418095
-1,9,10,61,-32,-3,1,1,1652970154.6418095
3,1,3,-36,-9,-3,3,1,1652970154.6418095
-3,0,22,17,-5,-1,0,-2,1652970154.6418095
-6,-12,-10,-16,13,4,-2,-3,1652970154.6418095
9,0,-2,21,10,-9,-1,0,1652970154.6633976
3,1,-2,32,22,3,2,-3,1652970154.6633976
4,3,-4,-64,-20,-7,2,0,1652970154.6633976
-4,0,6,46,15,6,0,-1,1652970154.6633976
-3,1,-1,-11,3,5,3,2,1652970154.670381
-4,-2,3,32,-4,6,-3,-3,1652970154.670381
-5,-2,-9,0,9,-4,-4,-1,1652970154.670381
-2,1,11,-20,6,7,-1,1,1652970154.670381
2,-1,-10,-46,-35,-1,-2,2,1652970154.6793568
2,-2,-27,-109,-28,2,0,0,1652970154.6793568
0,3,10,94,26,5,-3,-2,1652970154.6793568
-4,-2,1,-25,-15,-1,-1,-2,1652970154.6793568
-3,-6,-8,10,14,1,0,1,1652970154.6933198
1,7,16,1,13,1,0,3,1652970154.6933198
1,0,-3,-29,-14,-1,-1,0,1652970154.7003038
0,2,-1,11,-6,0,0,-2,1652970154.7003038
-1,-7,-3,7,-2,-1,0,-2,1652970154.7192504
-2,-4,-13,14,9,-5,-3,-2,1652970154.7192504
0,2,2,-7,8,-10,-7,-2,1652970154.7192504
-1,2,3,42,48,5,-3,0,1652970154.724237
-1,0,0,-21,-56,-10,0,0,1652970154.7391968
0,-3,-10,-42,0,5,-3,-1,1652970154.7411916
3,3,-2,7,28,-4,-2,8,1652970154.7411916
-2,0,-2,-16,-8,1,0,-10,1652970154.7411916
-3,0,5,25,9,0,-1,-4,1652970154.7641306
-5,-5,0,44,8,2,3,-1,1652970154.7641306
1,-1,-7,-26,-6,18,2,-1,1652970154.7671227
0,3,4,13,-21,-8,-2,2,1652970154.7671227
-2,-2,-1,-36,8,-2,-4,-1,1652970154.7741036
0,-1,-1,3,-23,-8,1,-1,1652970154.7741036
-2,-3,-5,-9,-1,3,1,0,1652970154.781085
0,3,-3,-17,-5,0,1,2,1652970154.781085
-2,2,4,27,-1,0,1,-1,1652970154.7950475
-2,5,-1,2,19,1,-3,-1,1652970154.7950475
1,3,-2,-24,-25,-16,-3,-5,1652970154.8070154
3,5,0,18,8,7,3,0,1652970154.8070154
0,-4,-1,17,15,-4,-2,-3,1652970154.8219755
-7,-4,-7,-3,-5,3,1,1,1652970154.8219755
1,-2,8,5,-2,3,3,2,1652970154.8219755
-1,-4,3,6,-21,-9,-3,-3,1652970154.8219755
3,0,6,24,27,8,1,2,1652970154.8359385
-5,-6,-11,-46,-14,-2,-4,-4,1652970154.8359385
-1,-2,2,36,18,-6,-4,-5,1652970154.8429196
-1,0,-2,4,16,1,-2,0,1652970154.8429196
1,9,15,-24,-55,-9,3,5,1652970154.861869
-2,-3,-7,41,22,14,-2,-1,1652970154.861869
-1,-3,-7,-46,-7,0,-2,-2,1652970154.861869
1,-8,-2,25,8,-6,-9,0,1652970154.861869
-1,-5,-4,9,1,0,0,-4,1652970154.880818
3,-1,2,-4,-4,-2,2,-2,1652970154.880818
-3,-4,7,12,-5,-1,-2,-4,1652970154.8828135
-1,-3,-6,-25,-7,2,2,-1,1652970154.8828135
0,-2,-5,-7,12,-3,-2,-3,1652970154.8897943
0,-4,-5,-14,-5,-4,-3,2,1652970154.8952873
5,-7,-4,14,9,8,1,0,1652970154.9082532
-18,2,1,-21,-14,-2,1,2,1652970154.9082532
10,-2,-5,5,15,0,2,10,1652970154.9162316
11,27,0,8,-8,-9,-5,-16,1652970154.9162316
1,2,8,12,-9,-6,0,0,1652970154.92421
2,0,0,-16,-9,1,3,-4,1652970154.92421
-11,-9,-8,28,-5,6,2,-1,1652970154.953133
-7,-14,-5,-34,-2,-1,-3,1,1652970154.953133
-4,5,4,-2,4,-3,-3,-1,1652970154.956125
-2,-9,-12,-14,-48,0,0,2,1652970154.956125
0,4,3,40,47,8,5,0,1652970154.956125
0,-3,15,-44,-19,-7,-2,-2,1652970154.956125
-1,1,-10,8,-2,2,1,0,1652970154.9631064
3,5,5,-9,1,-4,-8,0,1652970154.9631064
3,-4,-19,-23,-16,7,-3,-5,1652970154.9780662
-2,-3,3,40,11,-16,-3,0,1652970154.9780662
-6,-4,-3,-13,5,6,-1,2,1652970154.9780662
4,4,2,18,7,-10,1,3,1652970154.9780662
-8,-3,-5,-26,-11,-11,-4,-3,1652970155.0053902
-6,-12,-2,-2,-1,3,3,2,1652970155.0053902
-1,8,2,12,-2,-9,-6,-3,1652970155.0053902
6,-3,-4,-6,-3,1,0,-3,1652970155.0053902
2,9,14,15,10,0,-2,-2,1652970155.0123715
7,-1,0,7,6,7,4,2,1652970155.0123715
2,-9,-8,7,1,-2,5,0,1652970155.0203497
-6,-2,-10,-20,16,4,-2,-5,1652970155.0203497
-6,4,5,-11,13,-16,-7,-3,1652970155.0432568
-2,0,6,51,3,4,2,0,1652970155.0452847
5,-7,-13,-47,-21,-1,-1,-2,1652970155.0452847
3,0,5,2,22,-1,-2,-1,1652970155.0452847
-6,2,2,-11,-7,4,-1,-1,1652970155.059245
0,-2,-1,-4,-16,2,1,1,1652970155.059245
-7,-10,5,22,4,-9,-3,-3,1652970155.059245
12,4,1,-10,-8,3,3,2,1652970155.059245
8,2,-7,-26,-14,-2,0,-2,1652970155.073176
1,5,-3,-11,9,10,3,5,1652970155.073176
0,0,8,40,2,-1,1,-3,1652970155.0841796
-9,-8,5,-17,-12,-4,-3,-3,1652970155.0841796
-2,-8,-4,4,12,12,0,-3,1652970155.0981426
-2,-2,-7,-29,-14,-11,-5,-1,1652970155.0981426
-1,7,-2,-6,-7,9,4,3,1652970155.0981426
-3,9,1,51,36,8,0,-1,1652970155.0981426
-8,-1,7,30,3,-14,-5,-6,1652970155.120083
-2,-10,-3,17,8,0,-1,0,1652970155.120083
4,1,-6,-46,-21,13,8,2,1652970155.120083
2,8,12,15,36,-1,2,8,1652970155.120083
-1,0,9,48,11,5,1,-2,1652970155.1380498
-8,-8,-12,-45,-53,-17,-10,-7,1652970155.1380498
-1,-3,6,14,12,5,-2,1,1652970155.1450155
-4,-6,-4,-18,-13,14,0,-3,1652970155.1450155
0,-4,-7,-11,8,7,6,6,1652970155.159977
11,11,8,35,23,1,2,0,1652970155.159977
4,3,4,4,-4,-6,-1,-4,1652970155.159977
-1,-10,-7,-26,-19,-18,-7,3,1652970155.159977
1,5,5,-20,2,-1,-1,0,1652970155.1859095
-4,-5,-4,-11,5,5,2,0,1652970155.1859095
-1,-8,-14,4,-2,-12,-6,-3,1652970155.1859095
-21,-8,-2,-6,-1,-1,2,-5,1652970155.1859095
5,1,3,-22,-12,-4,-3,1,1652970155.1928895
9,21,5,11,5,-8,-2,3,1652970155.1928895
2,-1,7,12,14,-1,0,-1,1652970155.205821
7,1,-8,15,-19,-6,-2,-2,1652970155.20785
-11,1,-12,-18,-7,-2,-5,-5,1652970155.233748
-5,-8,-3,-9,18,0,-1,3,1652970155.233748
-3,2,-14,-34,-62,-7,-6,1,1652970155.233748
2,3,16,7,46,19,6,3,1652970155.233748
-6,-13,2,5,0,-6,-6,-9,1652970155.2410662
-3,-5,0,5,16,7,-2,-4,1652970155.2410662
-13,-6,9,30,6,-8,-7,-4,1652970155.2410662
4,-9,-23,-37,-28,10,4,2,1652970155.2410662
9,14,-4,-26,-13,-4,3,7,1652970155.2560265
2,2,12,10,15,12,7,3,1652970155.2560265
0,5,-5,-21,-15,-17,-1,-5,1652970155.2630093
3,4,5,5,-8,-68,1,-3,1652970155.2630093
-12,-11,-10,3,-5,-74,-4,-3,1652970155.2799625
4,-17,13,30,-10,-88,2,-1,1652970155.2799625
8,39,10,-20,12,-42,-4,6,1652970155.280959
10,-14,-4,-2,3,-14,1,6,1652970155.280959
4,9,-12,-10,-14,-5,-1,-14,1652970155.3019032
-6,-2,-11,-4,-14,-4,-4,-3,1652970155.3019032
-10,-15,5,14,21,15,1,-3,1652970155.3019032
4,-1,-6,-15,-4,14,-3,-2,1652970155.3019032
7,-2,-2,13,23,26,4,7,1652970155.3138404
-3,-2,-2,-2,-23,2,4,0,1652970155.3138404
-2,-2,-10,-4,6,-6,3,2,1652970155.3278372
-12,4,-18,-16,-20,-2,-8,-7,1652970155.3278372
1,-3,24,18,-6,15,5,3,1652970155.3408034
-4,1,-1,-17,5,18,-5,-4,1652970155.3408034
1,-5,21,13,5,16,0,5,1652970155.3408034
-4,-9,9,22,11,32,-4,-4,1652970155.3408034
-1,-13,-18,-14,1,12,-4,-1,1652970155.3991454
5,0,-12,-19,5,24,-2,-1,1652970155.3991454
-2,-6,-1,18,-14,-1,0,-4,1652970155.4061446
2,4,9,14,-7,16,4,-2,1652970155.4061446
-2,-2,5,8,-11,-17,-3,2,1652970155.4061446
-14,-15,1,-3,1,-23,-2,-1,1652970155.4061446
4,10,-5,-16,16,-6,5,0,1652970155.4061446
-6,5,-12,-12,-4,-57,-2,-2,1652970155.4061446
2,3,7,3,-4,-18,3,2,1652970155.4061446
7,10,-7,-7,-6,23,3,-2,1652970155.4061446
8,1,12,-3,16,23,1,2,1652970155.4061446
-15,-3,17,17,-11,-24,-5,-4,1652970155.4061446
-5,2,4,-35,-17,-40,-3,0,1652970155.4741604
0,5,8,36,30,6,-3,1,1652970155.4741604
-5,-21,-24,8,-4,49,0,0,1652970155.4741604
-5,-14,-28,-24,-17,59,-2,-5,1652970155.4741604
9,-3,24,64,30,72,3,0,1652970155.4741604
10,17,14,-7,-17,29,-1,-1,1652970155.4741604
-8,-3,3,-22,5,25,-2,-1,1652970155.4741604
5,21,20,-9,6,8,4,3,1652970155.4741604
-12,-8,-18,-41,-37,-20,-1,1,1652970155.4741604
-6,-8,-39,-33,-9,-17,1,-1,1652970155.4741604
-4,-4,-4,8,-23,-4,-10,-6,1652970155.4741604
6,6,42,23,-16,43,6,3,1652970155.4741604
3,0,0,51,60,31,-3,-1,1652970155.4881258
-1,0,9,-5,-1,28,-2,-4,1652970155.4881258
-8,-10,-29,-7,-13,0,-6,-4,1652970155.4881258
9,4,3,24,35,6,4,5,1652970155.4881258
2,6,23,93,-21,83,-5,0,1652970155.5170462
-12,-12,-17,-77,-21,36,-5,-4,1652970155.5170462
-10,-7,-23,-35,-10,52,-6,-10,1652970155.5170462
-8,-1,-4,-8,5,40,0,-2,1652970155.5170462
7,2,-3,-36,23,14,9,5,1652970155.5170462
4,16,57,98,7,-59,1,2,1652970155.5170462
4,4,5,6,12,-53,0,2,1652970155.5300112
11,-1,-18,7,-14,-49,5,5,1652970155.5300112
-11,-10,-24,-14,6,-52,-5,-5,1652970155.5509553
-4,7,37,-20,-6,-76,-5,-3,1652970155.5509553
-7,-14,19,17,12,-91,-3,-2,1652970155.5509553
-17,-15,-17,74,5,-32,-7,-4,1652970155.5509553
27,25,-28,-118,-43,-9,-4,4,1652970155.5599306
0,-6,-41,-1,-2,24,3,1,1652970155.5599306
9,22,74,51,0,-9,9,8,1652970155.5599306
-7,-17,-28,-31,-18,-15,-10,-8,1652970155.5599306
-9,-11,35,109,31,15,8,-1,1652970155.57489
1,-7,-33,-84,-66,29,-3,2,1652970155.57489
-2,-6,16,85,45,-49,-2,-3,1652970155.5818715
-1,-8,-21,-114,-24,37,-7,-1,1652970155.5818715
1,3,-4,-8,44,-22,3,3,1652970155.6058073
6,2,4,0,-5,14,-1,-1,1652970155.6058073
3,-2,-30,-35,8,16,2,-1,1652970155.6078022
5,6,24,96,17,17,3,2,1652970155.6078022
-9,-3,-3,-36,-43,-1,-9,-8,1652970155.6147835
-2,1,23,11,15,15,7,7,1652970155.6147835
2,-7,-9,-22,-13,8,-2,-1,1652970155.622762
5,7,-23,-96,32,20,8,1,1652970155.622762
-10,-24,-46,8,-20,5,-8,-7,1652970155.6367247
-8,-7,22,41,22,-1,6,1,1652970155.6367247
-1,9,2,5,-10,-9,-6,-5,1652970155.6466978
13,20,19,42,19,6,9,4,1652970155.6466978
-15,-27,-16,-9,-34,-12,-12,-9,1652970155.6596637
3,5,-66,19,8,1,-10,-5,1652970155.6596637
11,21,9,-70,14,20,14,11,1652970155.6626556
-9,-8,5,-17,-32,-33,-7,-8,1652970155.6626556
-4,10,-1,13,12,49,7,5,1652970155.6845968
-5,-16,-34,-24,28,30,-10,-5,1652970155.6845968
-10,-17,-71,-57,-36,23,-10,-5,1652970155.6845968
16,26,107,113,43,17,11,10,1652970155.6845968
8,2,73,-59,9,5,8,5,1652970155.7025487
-11,-12,-37,19,-29,-14,-8,-5,1652970155.7025487
-17,-11,-35,15,31,-16,5,-4,1652970155.7025487
-4,-33,-7,-2,23,-19,9,0,1652970155.7025487
8,29,19,53,-2,-14,-7,4,1652970155.72449
5,6,22,-41,-25,4,3,3,1652970155.72449
29,32,-31,-78,-24,-22,-6,1,1652970155.72449
-2,-3,-14,29,-14,-35,-3,-8,1652970155.72449
-4,-42,-55,-64,18,11,9,3,1652970155.7474284
-6,18,72,73,28,-13,10,4,1652970155.7474284
-17,-24,-12,-26,-23,-22,3,-1,1652970155.7504225
-21,-20,8,21,5,48,-10,-9,1652970155.7504225
8,1,-28,-40,11,54,0,4,1652970155.7574022
5,-23,7,69,1,25,6,1,1652970155.7574022
6,34,60,8,14,85,1,6,1652970155.7643836
-7,9,-67,-128,-70,68,-23,-6,1652970155.7643836
-19,-37,-31,82,4,52,-15,-14,1652970155.7793434
7,6,-51,-95,-6,67,-8,-3,1652970155.7793434
2,19,50,110,-2,-43,6,0,1652970155.7903142
9,-31,73,6,23,-70,7,4,1652970155.7903142
-25,-43,-82,-118,6,-5,-17,-20,1652970155.805274
-19,56,82,112,29,63,8,-1,1652970155.805274
26,2,-40,-75,-49,118,16,3,1652970155.805274
24,67,-111,-10,20,127,37,26,1652970155.805274
41,2,95,29,21,79,19,8,1652970155.8203304
2,6,70,-4,-31,50,-10,-2,1652970155.8203304
-29,-108,-35,-3,40,127,-29,-12,1652970155.8253086
36,75,120,80,13,106,-15,4,1652970155.8283007
-2,-46,19,-14,-36,-110,-10,1,1652970155.8462517
-17,-45,-104,-59,7,-115,-34,-8,1652970155.8462517
-1,38,119,46,-6,-81,-35,5,1652970155.8462517
-14,-87,-128,-47,-14,-55,-20,-7,1652970155.8462517
-8,92,87,80,1,12,26,-2,1652970155.86121
-19,-128,-84,-17,-6,6,25,-8,1652970155.86121
-32,-45,-128,-24,16,8,-4,-10,1652970155.8691988
-12,92,96,-30,-69,3,2,-6,1652970155.8691988
56,125,111,85,60,12,10,18,1652970155.876173
52,52,-37,-25,18,11,-21,8,1652970155.876173
16,17,127,83,41,21,-20,5,1652970155.8881478
-24,-128,-128,-75,-26,-3,-87,-19,1652970155.8881478
-6,55,86,-14,-11,6,-27,2,1652970155.901072
-23,22,12,-16,-10,12,-30,1,1652970155.901072
-14,-96,-112,-37,-24,18,-66,-13,1652970155.9031014
-28,94,104,0,-5,-16,-51,-1,1652970155.9031014
10,-2,-128,-77,-10,1,-23,1,1652970155.9240465
19,32,-81,39,31,4,-10,7,1652970155.9240465
5,-34,-87,-72,-13,-1,48,1,1652970155.9300373
-25,-55,45,85,2,-10,47,-12,1652970155.9300373
-35,-17,-128,-58,-35,5,16,-14,1652970155.938005
-14,68,127,10,4,7,38,7,1652970155.938005
2,-91,-91,-22,-2,0,65,9,1652970155.9449885
6,84,80,-7,1,-8,27,-9,1652970155.9449885
10,22,-44,-28,-30,0,24,0,1652970155.9609463
18,-91,1,-106,-18,8,26,-6,1652970155.9609463
10,127,127,118,14,-2,17,4,1652970155.9609463
-29,-128,-128,-95,-35,-3,15,-7,1652970155.9609463
-13,-71,-109,20,14,-1,-15,-3,1652970155.9928262
19,97,98,-5,-11,5,-15,2,1652970155.9928262
37,33,65,29,56,0,-12,4,1652970155.9928262
17,-48,-9,36,22,-4,14,8,1652970155.9928262
-9,-128,-68,-72,-25,2,-3,-6,1652970156.0008051
-61,-102,-128,74,-8,7,-2,-15,1652970156.0018353
-23,-2,-26,-34,-15,-1,2,-8,1652970156.0058243
-6,21,79,44,15,-3,12,7,1652970156.0058243
40,0,63,-44,-10,1,5,18,1652970156.0207846
-12,42,-93,-15,8,2,-4,-4,1652970156.0207846
5,56,71,19,-12,8,12,12,1652970156.0227828
19,33,79,4,21,-1,-8,0,1652970156.0227828
10,70,-7,-26,-14,0,19,10,1652970156.041729
-2,-31,-47,-23,12,-3,7,-16,1652970156.041729
-8,-62,-54,-27,-14,0,9,-6,1652970156.041729
-20,-98,-128,82,-4,-4,4,-3,1652970156.041729
-19,-44,20,30,24,-1,-7,-3,1652970156.0566823
7,23,117,68,-11,1,17,9,1652970156.0566823
-9,0,32,41,60,2,-2,-7,1652970156.0636702
26,34,8,-24,21,0,10,3,1652970156.0636702
-5,-7,-22,-17,-13,-1,-8,-7,1652970156.0786343
21,-31,-31,-47,-53,-1,25,7,1652970156.0786343
14,-6,-10,-38,-75,1,-12,-5,1652970156.0896096
27,79,-3,-67,8,-4,-3,11,1652970156.0896096
-21,23,25,54,13,-3,-24,-8,1652970156.105561
-17,-35,4,-27,-14,3,-45,-9,1652970156.105561
10,1,-12,-14,6,-2,-12,4,1652970156.105561
0,4,-44,-11,-3,-3,1,-3,1652970156.105561
-9,-1,20,14,-18,-11,-32,-4,1652970156.1205196
-6,-13,20,2,18,-2,-13,0,1652970156.1205196
-14,-11,-44,-15,3,1,7,-5,1652970156.1284978
-6,13,-3,-10,-11,-3,-12,-1,1652970156.1284978
-17,8,10,-31,-9,2,-18,1,1652970156.1454508
17,22,44,66,23,1,9,4,1652970156.1454508
-2,10,-29,13,-12,-4,11,-4,1652970156.1474485
4,13,4,18,-2,-2,50,3,1652970156.1474485
14,15,-5,-43,0,-1,31,-7,1652970156.163405
26,13,-10,-5,14,-1,13,-2,1652970156.163405
14,0,-4,-31,-20,-2,18,-1,1652970156.163405
-4,-19,-6,-10,-12,3,-9,-1,1652970156.163405
-5,-71,-8,6,-2,-4,16,-1,1652970156.2171721
-2,-53,-6,-15,9,-1,2,-1,1652970156.2171721
-10,-3,-3,3,5,0,14,2,1652970156.2271767
-13,20,-16,-46,6,0,3,2,1652970156.2271767
-3,63,2,35,-8,-5,-23,-1,1652970156.2271767
-6,23,-5,-17,-9,1,12,0,1652970156.2271767
2,0,-16,-31,-1,4,6,1,1652970156.2271767
3,11,6,34,-7,-5,-20,-6,1652970156.2271767
-8,-1,5,4,2,-2,10,-4,1652970156.2271767
-8,5,-1,3,8,-4,-15,0,1652970156.2271767
-12,-1,-14,-54,-17,1,-5,-4,1652970156.2271767
-3,-10,-4,41,28,-4,4,-3,1652970156.2271767
-4,-5,21,52,-10,3,9,-1,1652970156.2500825
1,2,-2,2,10,4,-16,4,1652970156.2500825
-6,-6,-7,-16,14,0,-31,1,1652970156.2500825
8,-16,41,14,-18,-3,5,6,1652970156.2500825
-3,-27,-4,8,-5,-6,6,-2,1652970156.2580605
-2,-6,-10,-29,10,2,23,-7,1652970156.2580605
-4,-13,7,13,-23,6,30,-3,1652970156.265076
3,-5,7,-1,13,-1,8,-3,1652970156.265076
5,0,-1,3,0,29,-11,4,1652970156.283994
4,-2,-2,-11,-9,34,-13,3,1652970156.283994
0,-4,-6,-2,8,26,-11,0,1652970156.283994
-4,-13,-16,-2,7,28,2,-4,1652970156.283994
-2,-2,-11,-9,-2,-9,5,-3,1652970156.2959921
4,2,8,0,1,-43,0,-1,1652970156.2959921
-3,1,11,1,-9,-31,-3,-1,1652970156.3069632
0,-2,-26,-46,2,-7,-6,2,1652970156.3069632
-3,-4,-7,40,10,117,8,1,1652970156.3259125
-2,-1,2,9,-1,125,-1,-1,1652970156.3259125
0,4,-12,3,3,92,-1,2,1652970156.3259125
-7,-3,-8,-18,-23,-29,0,-3,1652970156.3259125
2,-1,1,-3,19,-27,14,2,1652970156.341868
-8,-2,-3,7,13,-63,3,-5,1652970156.341868
-1,7,17,31,-12,-91,-15,0,1652970156.341868
1,-4,-32,-64,-4,-80,-16,-2,1652970156.341868
1,3,8,17,9,-84,-13,-2,1652970156.3558354
6,5,1,4,-15,-128,-16,2,1652970156.3558354
-1,1,-6,-14,17,-70,-6,2,1652970156.3677998
-4,-3,-3,-12,-8,-56,-1,-1,1652970156.3677998
2,7,8,9,-10,-32,6,2,1652970156.3827288
-2,5,3,18,21,-56,6,-1,1652970156.3827288
-3,1,-4,-38,-62,-125,-9,-5,1652970156.3877134
2,2,13,52,7,-125,-2,1,1652970156.3907378
-2,-1,13,37,57,-128,-3,1,1652970156.4056907
0,-3,-9,-17,-74,-117,-1,-1,1652970156.4056907
2,1,13,-24,13,-128,-2,-1,1652970156.4056907
-4,-3,-2,31,50,-101,-7,-1,1652970156.4056907
-3,-10,-18,-44,-57,-21,-1,-5,1652970156.4226544
5,4,-2,-12,20,42,4,2,1652970156.4226544
-1,4,22,17,-27,75,-4,0,1652970156.4246497
4,5,12,27,-7,118,-3,1,1652970156.4246497
-3,-1,5,-8,20,73,2,1,1652970156.439609
-2,2,-13,-27,-14,54,-3,1,1652970156.439609
-6,3,1,32,-4,60,-3,-1,1652970156.4475853
-3,2,-1,7,18,56,-8,-4,1652970156.4475853
2,2,-4,-28,-35,-14,5,2,1652970156.466537
-4,-2,2,-14,-2,-8,2,-1,1652970156.466537
-1,-4,-12,-14,15,-25,5,2,1652970156.466537
-2,0,-2,7,3,-22,-2,-2,1652970156.466537
3,2,0,17,16,-40,0,1,1652970156.4745154
4,1,6,-18,-36,-64,1,3,1652970156.4745154
0,-5,-14,7,4,-24,-1,-6,1652970156.4904711
3,-2,-4,-33,-8,37,8,1,1652970156.4904711
-1,-3,1,22,-6,56,1,-3,1652970156.4974449
-7,2,-5,5,7,36,-4,-6,1652970156.4974449
-1,6,11,37,33,40,-3,-1,1652970156.5084615
2,3,-5,-49,-25,40,0,2,1652970156.5084615
-6,-6,-12,-22,-36,-57,-10,-6,1652970156.5234368
4,-3,-2,6,80,11,3,3,1652970156.5234368
-1,-3,5,59,-13,68,-6,-3,1652970156.5234368
-3,-5,-8,-33,-14,6,-9,-3,1652970156.5234368
-3,1,7,-18,9,-98,1,1,1652970156.5383823
0,-2,1,4,-17,-128,-1,0,1652970156.5383823
6,9,-1,-24,20,61,0,3,1652970156.545365
3,-4,-7,4,5,-87,-2,2,1652970156.545365
-2,-5,-10,-22,-21,18,-5,-4,1652970156.5643137
-1,0,8,14,27,37,3,-3,1652970156.5643137
-3,-2,-5,14,13,103,2,-2,1652970156.5643137
-4,-6,-11,-14,-57,127,-6,-2,1652970156.5643137
-4,2,-3,-26,9,127,-3,-1,1652970156.584227
-5,-1,-8,-21,-34,127,-9,-3,1652970156.584227
2,-1,12,25,26,92,-1,2,1652970156.5862534
7,10,4,23,15,-77,2,1,1652970156.5862534
-2,-3,-3,-14,4,-54,-1,-5,1652970156.593236
2,3,1,21,-18,127,1,-4,1652970156.593236
0,-4,-3,-14,10,63,-1,-3,1652970156.6127603
-3,-5,-7,-17,13,71,-2,0,1652970156.6127603
-1,0,2,12,13,-29,-1,3,1652970156.6197405
-4,0,2,15,-9,-128,0,0,1652970156.6197405
-4,-4,-12,-22,-11,-128,-1,1,1652970156.6267238
-1,2,7,0,-1,-119,-1,0,1652970156.6267238
3,-1,-7,-4,6,-91,-1,1,1652970156.6416817
-6,-6,-21,-37,-11,-114,4,-1,1652970156.6416817
8,10,24,10,23,-128,14,6,1652970156.6416817
-6,-4,-6,23,-2,-112,-7,-2,1652970156.6416817
-4,-4,-6,-14,-34,-85,-10,-4,1652970156.6656108
3,-4,-12,32,24,-42,-7,2,1652970156.6656108
1,3,2,-18,-15,-2,-6,-3,1652970156.6676018
2,-1,11,4,7,81,3,3,1652970156.6676018
-3,-3,1,6,38,111,-3,-1,1652970156.6835392
-1,-5,-10,-8,-14,75,-2,2,1652970156.6835392
-3,-4,-11,-10,-13,54,0,-2,1652970156.690548
-2,0,-8,23,20,74,4,-2,1652970156.690548
-4,-4,-5,-16,-13,68,-1,-3,1652970156.70939
1,8,18,-5,8,52,5,2,1652970156.70939
0,5,14,0,-21,-1,-2,0,1652970156.70939
-2,1,0,-24,8,28,10,-1,1652970156.70939
2,6,-2,31,22,26,3,2,1652970156.7243507
2,-3,-21,-62,-28,12,-9,-2,1652970156.7243507
-4,-10,-13,4,-17,0,-6,0,1652970156.7283397
2,5,20,40,2,9,-1,4,1652970156.7283397
6,13,46,16,-10,16,-1,0,1652970156.7383132
-2,3,8,25,33,10,6,-2,1652970156.7383132
-9,-6,-19,-14,-17,-12,-8,-9,1652970156.7452955
-1,-5,-25,-16,-3,4,0,-1,1652970156.7452955
0,-5,-25,-1,9,9,3,0,1652970156.7642453
3,10,40,-14,-13,-1,3,3,1652970156.7642453
3,0,0,1,20,-9,10,7,1652970156.7642453
-5,-11,-6,-11,-14,0,-12,-8,1652970156.7642453
2,-4,-8,-1,-7,7,-6,1,1652970156.787186
-1,-8,-9,28,-9,0,-7,-3,1652970156.787186
0,1,1,-4,-15,-13,-3,-2,1652970156.787186
-4,4,24,8,3,-3,5,-1,1652970156.787186
2,-1,-11,3,0,0,-4,1,1652970156.80072
-2,1,10,6,-31,0,-2,-2,1652970156.80072
-8,3,-20,-20,-19,-7,-13,-9,1652970156.81202
3,4,13,13,19,2,8,5,1652970156.81202
-6,-2,-1,5,-7,-16,-13,-11,1652970156.8219936
12,-6,-10,-4,-11,15,2,5,1652970156.8219936
-3,-12,-11,12,15,10,4,4,1652970156.8219936
2,3,0,-19,-21,14,-10,-9,1652970156.8219936
-24,-16,-15,-30,17,25,2,-6,1652970156.8439374
-4,-18,5,17,35,23,2,5,1652970156.8439374
4,12,12,-3,-24,10,-4,1,1652970156.8439374
5,-2,-2,-3,0,2,1,5,1652970156.848921
5,9,14,13,17,2,10,4,1652970156.8628907
-5,-13,-22,-24,6,-11,-9,-13,1652970156.8628907
5,4,-14,0,1,-7,2,1,1652970156.8698666
4,-1,-10,26,1,-42,5,2,1652970156.8698666
6,0,7,-23,-22,-26,0,3,1652970156.8928027
-4,7,11,19,31,-13,2,3,1652970156.8928027
-2,-6,11,-22,5,1,1,-1,1652970156.8928027
-2,7,-9,-1,-13,19,-6,-4,1652970156.8928027
3,0,27,33,3,15,3,0,1652970156.910768
-1,-6,-23,-11,3,2,2,-2,1652970156.910768
6,4,37,65,20,-1,-1,0,1652970156.910768
-4,-4,-8,-25,17,-2,2,-2,1652970156.910768
-8,-11,12,2,-28,7,1,0,1652970156.9187918
1,13,2,-5,-6,2,0,-3,1652970156.9187918
4,1,-4,-17,-4,7,2,2,1652970156.9267619
-6,-7,-5,5,3,14,-8,-1,1652970156.9267619
1,5,-11,-11,-2,9,-1,-1,1652970156.9457183
-4,-10,3,10,11,5,2,-2,1652970156.9457183
-10,5,-11,-12,-5,5,1,-4,1652970156.9457183
15,9,1,6,8,4,2,6,1652970156.9457183
25,6,-14,-21,-8,-10,0,3,1652970156.9666362
-3,3,-1,6,-13,-11,-9,2,1652970156.9666362
-2,1,-7,-2,5,-13,-2,2,1652970156.9696102
-45,-21,2,-10,-12,0,-3,-17,1652970156.9696102
-8,-20,-14,-4,-8,1,-1,5,1652970156.9766257
12,23,5,10,17,-4,4,5,1652970156.9766257
4,-6,-6,-8,3,14,-2,1,1652970156.9965816
12,6,5,-4,8,92,2,0,1652970156.9965816
-1,-12,-9,-2,-6,46,-2,-5,1652970157.0055478
-17,10,10,15,16,16,0,-4,1652970157.0055478
7,-15,-4,-6,17,-38,2,0,1652970157.0055478
7,12,-17,-14,-52,-52,-9,-2,1652970157.0055478
-1,6,13,25,39,-28,16,4,1652970157.0264912
-3,-14,-2,-5,-34,-35,-10,1,1652970157.0264912
-10,-9,9,29,36,-20,-3,-6,1652970157.0264912
-2,-15,-20,-41,-34,-17,0,-2,1652970157.0264912
8,-22,8,19,-9,3,6,8,1652970157.0394616
33,43,-6,-11,-6,-7,-8,-19,1652970157.045452
-36,15,-8,-24,-14,5,-2,-8,1652970157.053419
-1,22,8,-12,19,17,-4,-4,1652970157.053419
-29,-30,-7,10,-7,16,-14,6,1652970157.0604
-47,-25,-2,-1,-20,20,-1,-1,1652970157.0604
-17,-77,-16,-8,-36,-21,-12,-12,1652970157.0693755
92,75,-7,-19,-25,-36,4,22,1652970157.0693755
65,31,-5,-6,-3,28,9,14,1652970157.0833445
-76,-42,-14,-16,2,41,4,-31,1652970157.0833445
28,49,-2,-10,27,19,6,3,1652970157.0893223
-49,-40,17,33,33,-5,-17,4,1652970157.0913193
-2,-6,8,1,10,-34,-12,-9,1652970157.102255
11,-13,9,-4,-70,-30,-16,1,1652970157.102255
26,10,-3,-8,-19,-31,3,-8,1652970157.11027
-17,-49,-30,-32,-24,-32,5,-12,1652970157.11027
47,43,24,24,16,-17,2,10,1652970157.1262228
4,-23,-1,16,25,-11,6,-9,1652970157.1262228
-91,-87,5,-5,-37,-61,1,-15,1652970157.1262228
14,43,1,1,44,-30,3,14,1652970157.1262228
-37,15,1,3,-20,-19,-16,-4,1652970157.1461704
11,47,2,-1,38,9,15,17,1652970157.1461704
100,86,5,27,26,-16,-2,21,1652970157.1531608
-55,-22,34,11,1,-6,6,-13,1652970157.1531608
-14,21,-14,-29,-12,-21,23,-16,1652970157.16911
85,-101,-11,-9,-5,101,-40,2,1652970157.16911
-89,108,10,-3,36,127,22,1,1652970157.16911
31,-41,-23,6,-14,127,6,3,1652970157.16911
-39,-24,7,6,5,-91,-8,-9,1652970157.1840384
-12,-16,-29,7,68,-128,17,0,1652970157.1840384
-4,-39,84,88,11,8,-12,-1,1652970157.1840384
42,55,12,24,-35,20,9,13,1652970157.1840384
-21,18,-18,-40,-19,68,-13,-7,1652970157.2570736
-14,19,81,42,-74,-21,-4,-1,1652970157.2570736
86,-2,-37,-56,40,-22,4,7,1652970157.2570736
-89,-75,-5,16,-41,-1,3,6,1652970157.2570736
27,-15,-15,-31,10,-27,-20,-22,1652970157.2570736
-33,15,-16,-25,8,-42,-3,1,1652970157.2570736
42,26,16,-6,-54,-30,10,25,1652970157.2570736
26,18,-2,-9,64,-126,1,6,1652970157.2570736
-56,-46,-65,-23,-33,-87,-12,-22,1652970157.2700272
42,102,24,19,30,-103,22,9,1652970157.2700272
-98,-107,-61,-53,-62,-95,-54,-30,1652970157.2700272
40,-19,-5,29,-42,17,-4,-2,1652970157.2700272
25,-21,17,-4,69,69,17,13,1652970157.277997
0,28,-47,9,-11,109,3,17,1652970157.277997
-35,4,18,0,74,51,5,-25,1652970157.277997
-9,-11,10,47,-18,97,1,3,1652970157.277997
-71,-30,9,29,40,127,-12,-25,1652970157.277997
81,83,25,-8,-49,72,-15,-18,1652970157.277997
-3,-39,-30,-55,6,-14,7,41,1652970157.3362403
-43,-56,-6,-14,22,-105,-12,-15,1652970157.3362403
8,58,6,2,7,-98,7,7,1652970157.3482363
-43,-113,-9,32,114,-70,22,18,1652970157.3482363
69,112,41,40,-94,-46,-7,28,1652970157.3482363
-23,-4,26,-26,39,-35,18,1,1652970157.3482363
62,-29,-15,10,-26,-39,-1,3,1652970157.3482363
-15,-22,-29,-64,-94,-55,3,-28,1652970157.3482363
-5,-19,-39,-21,19,14,1,-3,1652970157.3482363
0,16,-23,-38,3,-48,-5,-8,1652970157.3482363
-28,-28,-20,42,27,3,3,-9,1652970157.3482363
9,-90,4,38,46,-6,-18,15,1652970157.3482363
31,22,28,3,13,-35,17,10,1652970157.403737
16,67,-7,-13,47,-38,-15,8,1652970157.403737
60,-7,-36,-34,2,-9,1,-6,1652970157.4375558
-111,-48,-8,-50,-51,-1,-6,-8,1652970157.4375558
-7,2,-16,21,-64,-103,-9,10,1652970157.4375558
-59,-42,-54,5,16,-75,-5,-19,1652970157.4375558
7,28,42,-5,-29,-118,9,7,1652970157.4375558
50,75,-5,-21,-18,-116,26,19,1652970157.4375558
-48,-8,27,32,73,-22,-2,-66,1652970157.4375558
68,45,47,16,-41,12,-4,10,1652970157.4375558
-62,-52,-22,-7,48,75,30,19,1652970157.4375558
31,20,-10,14,-106,97,9,8,1652970157.4375558
-1,-11,-50,-55,30,100,1,-3,1652970157.4375558
14,22,71,84,7,111,0,-17,1652970157.4375558
-55,-65,7,25,27,97,-22,-4,1652970157.4375558
31,73,20,12,81,81,-5,10,1652970157.438553
38,31,-23,10,-51,69,-4,4,1652970157.438553
7,-26,-7,-60,-15,63,-14,-6,1652970157.438553
-9,39,15,-18,-29,40,-5,10,1652970157.4565003
-2,-34,-14,-3,6,35,-4,-9,1652970157.4565003
44,15,16,-5,-16,36,4,6,1652970157.4565003
-15,19,-2,6,-10,19,-3,10,1652970157.4565003
12,27,27,-2,-46,3,0,16,1652970157.469467
-32,7,-23,-17,31,8,-3,-9,1652970157.469467
18,-39,-11,14,14,20,-2,-11,1652970157.4734533
5,-12,-15,-17,-20,6,-7,-13,1652970157.4734533
-25,26,-9,-17,-24,4,8,8,1652970157.4844298
-16,10,27,8,19,14,-2,1,1652970157.4844298
-47,-19,8,32,3,14,4,1,1652970157.4894087
32,10,24,-26,9,2,-1,0,1652970157.4894087
32,10,22,60,-6,-1,-7,-6,1652970157.503373
0,-28,-23,-24,-5,-2,-2,1,1652970157.503373
-18,-27,-16,-13,-14,-2,-12,-7,1652970157.5108633
-13,-7,6,27,8,-1,1,-9,1652970157.5108633
27,11,-11,-21,-6,2,6,4,1652970157.5187993
3,2,15,22,-2,-6,-8,0,1652970157.5187993
8,7,21,-20,-11,9,4,6,1652970157.5277662
-10,-21,-26,-11,-8,2,5,2,1652970157.5277662
1,27,-2,-16,-16,-7,-21,-15,1652970157.5444427
-14,2,0,-6,7,1,-6,-3,1652970157.547438
3,2,-2,9,3,5,-2,1,1652970157.5554123
5,-14,-11,-6,-14,102,-1,0,1652970157.5554123
12,-8,-1,-11,-15,119,2,2,1652970157.5623891
-30,-12,-2,1,9,24,-10,-5,1652970157.5623891
0,-53,7,10,19,-48,-1,3,1652970157.5703669
-21,-40,-15,-3,4,-128,-5,-4,1652970157.5703669
24,6,8,-3,2,-98,6,-1,1652970157.5863247
4,42,2,3,-6,-43,6,-2,1652970157.593274
-1,31,-17,-45,-19,5,-7,0,1652970157.593274
-11,32,-4,9,-17,18,-34,5,1652970157.593274
-8,-11,17,43,-25,111,-18,-1,1652970157.6057472
-12,-22,11,5,-39,78,-6,-2,1652970157.6057472
-11,5,-3,2,-29,12,13,2,1652970157.6137257
7,1,-22,-49,-11,-10,17,0,1652970157.6137257
-4,20,-3,-3,8,-81,3,-2,1652970157.6217043
15,-11,21,16,31,-111,18,2,1652970157.6217043
2,-3,9,20,55,-103,-2,-6,1652970157.6297147
11,11,-4,7,59,-86,15,2,1652970157.6297147
4,-3,0,-17,38,-84,12,2,1652970157.645672
3,-12,-12,-14,25,-45,4,-3,1652970157.645672
0,-5,4,12,11,-27,1,-2,1652970157.6566117
-4,-4,7,8,13,-22,0,1,1652970157.6566117
-2,1,-7,-5,7,-12,-1,-5,1652970157.6646154
7,-13,-7,-15,-2,-3,-2,-3,1652970157.6646154
-1,-9,2,11,7,-10,4,0,1652970157.6725998
1,3,-4,15,-12,-23,6,-2,1652970157.6725998
3,2,-4,-28,-23,-111,2,3,1652970157.6945426
3,-4,-4,-2,2,-17,-7,-1,1652970157.6945426
2,-1,-2,5,2,-114,1,0,1652970157.6955392
-2,5,8,17,11,-113,0,-3,1652970157.6955392
0,-3,4,-12,-23,-117,-5,-2,1652970157.7144566
1,1,-2,9,-3,-118,-2,0,1652970157.7144566
-2,-2,-4,17,2,-31,4,2,1652970157.7144566
-10,-12,-15,-16,-11,59,-1,-3,1652970157.7144566
5,13,14,-4,-14,80,-1,2,1652970157.722435
7,7,-10,-17,-13,127,2,2,1652970157.722435
-5,-6,22,51,34,127,-10,-6,1652970157.7304456
-2,-6,-6,8,26,101,-2,-3,1652970157.7304456
-2,-6,-3,-24,-5,119,8,-2,1652970157.744409
2,2,4,20,32,91,6,1,1652970157.744409
-7,-20,-27,-46,-70,98,-10,-4,1652970157.744409
0,12,1,-1,-21,104,-6,-1,1652970157.744409
2,-15,2,22,-14,121,-4,0,1652970157.7718468
-1,4,1,-4,2,60,3,2,1652970157.7718468
-1,-5,-1,2,12,19,2,2,1652970157.7718468
4,31,5,-10,-8,-16,-1,-1,1652970157.7718468
-3,8,-3,5,5,-70,-3,-2,1652970157.7798598
-1,-8,-8,-12,-6,-37,-8,-3,1652970157.7798598
-2,-2,5,6,0,3,-2,0,1652970157.7948167
-1,-4,0,-21,-22,21,2,3,1652970157.7948167
-2,-4,-11,16,2,23,-2,-2,1652970157.810779
0,1,4,-9,-5,99,-2,0,1652970157.810779
-2,6,2,4,6,127,2,-1,1652970157.810779
0,-4,-4,4,-20,115,3,-1,1652970157.810779
2,2,1,12,8,63,2,2,1652970157.8304055
-1,-5,2,-7,-12,-20,-3,1,1652970157.8304055
-5,-4,-5,-3,-2,-105,-1,-2,1652970157.831402
2,-5,-1,-43,-10,-95,7,3,1652970157.831402
-4,2,16,45,22,-65,-7,-4,1652970157.8393807
2,9,18,29,9,-34,2,2,1652970157.8393807
1,-2,0,7,21,19,-2,0,1652970157.855339
-1,-8,-4,3,-6,21,-5,-3,1652970157.855339
2,-2,-19,-76,-82,56,-1,1,1652970157.8633177
1,1,-2,37,72,43,-1,-1,1652970157.8633177
-3,3,14,79,75,39,-2,-3,1652970157.8742554
-3,-3,-2,-19,-78,64,3,-1,1652970157.8742554
2,2,-11,-42,-37,87,-3,-1,1652970157.8902483
-3,-12,-11,-86,-55,-24,-5,-3,1652970157.8902483
1,-3,-3,2,58,64,1,2,1652970157.8902483
3,10,0,15,39,75,-7,0,1652970157.8902483
-1,1,7,46,33,104,0,2,1652970157.9107404
2,4,1,-7,-20,59,-2,-3,1652970157.9107404
-1,-4,-7,-34,-50,20,-4,-1,1652970157.9127336
-4,-4,2,21,26,-33,1,0,1652970157.9127336
1,5,3,-8,8,-44,3,2,1652970157.9276915
-1,-2,1,7,24,-4,0,2,1652970157.931648
-3,2,0,22,-32,-47,2,-1,1652970157.931648
-2,-3,-4,17,17,-66,-3,-6,1652970157.931648
0,0,0,29,29,-128,2,0,1652970157.9466412
2,1,2,-24,-59,-106,0,0,1652970157.9466412
0,0,1,-55,15,-81,0,2,1652970157.9466412
-5,-4,-4,41,1,88,-7,-4,1652970157.9466412
-4,-4,-9,-24,-5,110,-7,-4,1652970157.969589
-2,-1,8,47,8,127,-7,-5,1652970157.969589
4,6,4,-64,-34,34,4,4,1652970157.969589
2,-7,-3,2,3,-101,5,2,1652970157.969589
-4,-3,-5,-38,-6,-121,-7,-4,1652970157.9915211
-1,-3,-7,16,-15,-114,-1,-2,1652970157.9915211
-2,1,-4,19,6,-122,1,-3,1652970157.9915211
0,-1,1,-20,18,-128,4,0,1652970157.9915211
-2,-2,-3,1,-11,-50,0,-1,1652970158.0064845
-4,1,-1,16,27,22,-1,-1,1652970158.0064845
4,1,11,74,19,24,1,2,1652970158.0064845
-1,-3,-3,-40,-16,26,-4,-1,1652970158.0064845
-1,0,1,16,-13,59,-1,-2,1652970158.021441
0,-3,-4,-30,-9,-123,-6,-1,1652970158.021441
-1,-4,-5,-16,-18,-77,0,-1,1652970158.0334089
1,-2,4,-3,-32,-128,0,-1,1652970158.0334089
-4,-2,0,11,24,-128,-1,-1,1652970158.049334
-7,0,1,8,13,-111,0,-3,1652970158.049334
-4,1,-3,-11,-21,-120,-2,-1,1652970158.049334
-1,-3,0,4,3,-100,-5,0,1652970158.049334
3,5,-1,32,30,-15,-3,0,1652970158.0733025
2,-2,-5,9,4,108,5,1,1652970158.0733025
-1,0,-7,-37,-15,125,-5,-2,1652970158.0733025
0,-2,6,0,8,127,5,1,1652970158.0733025
2,1,4,8,6,93,-5,0,1652970158.0802858
-1,-1,1,-5,-7,89,0,1,1652970158.0802858
3,3,3,-9,-8,24,-1,2,1652970158.092251
-4,-1,0,-4,-4,-64,-4,-2,1652970158.092251
-1,-4,-2,13,13,-52,5,1,1652970158.1062129
0,0,-1,-25,-10,-67,3,-1,1652970158.1082077
-1,-4,-14,-7,-4,-18,2,0,1652970158.1082077
4,1,0,-5,15,24,0,2,1652970158.1082077
0,-1,11,34,23,-45,3,0,1652970158.1291516
3,-1,2,-7,6,0,-9,-3,1652970158.1291516
-3,-2,-2,15,-27,35,-3,-3,1652970158.1311483
-4,0,-15,-21,-27,-12,0,1,1652970158.1311483
-2,-2,0,-10,14,-6,2,1,1652970158.1391273
-5,-4,-12,-35,-15,6,-4,-2,1652970158.1391273
0,2,4,-5,-9,14,-3,-2,1652970158.1910722
2,-2,9,24,30,33,0,2,1652970158.1910722
1,0,0,-19,-10,35,1,0,1652970158.1991038
-3,-3,-4,30,-20,3,-2,-3,1652970158.1991038
-5,-8,-11,-8,10,8,3,-1,1652970158.1991038
-3,0,2,-11,7,24,-2,-2,1652970158.1991038
14,-1,-9,-2,7,-23,-2,5,1652970158.1991038
2,10,19,9,26,-6,7,7,1652970158.1991038
3,3,8,-4,-12,-25,-5,-3,1652970158.201049
-19,-3,-3,2,-10,-33,-8,-12,1652970158.201049
-19,-6,2,6,4,-35,13,1,1652970158.2310133
0,-8,-13,0,-19,-38,-20,0,1652970158.2310133
8,4,-5,7,-19,41,0,7,1652970158.2310133
10,2,-5,-28,-1,8,-13,-12,1652970158.2310133
2,-1,4,45,34,-4,-8,-11,1652970158.2509158
-13,-2,-3,-24,3,21,16,8,1652970158.2509158
0,-5,20,33,35,9,11,2,1652970158.2509158
-1,1,-4,13,-52,51,7,2,1652970158.2509158
-15,-2,13,31,12,84,-6,-13,1652970158.255903
-33,-4,1,37,44,-105,-1,-16,1652970158.255903
11,4,-21,-60,-16,-68,-32,5,1652970158.255903
57,3,-22,-14,21,-37,17,17,1652970158.255903
-95,7,13,-45,-69,-19,-6,7,1652970158.2738936
119,17,27,32,-3,42,8,-3,1652970158.2738936
-52,-8,-22,-23,-10,16,3,26,1652970158.2858524
9,-4,17,20,35,11,-7,16,1652970158.2858524
-22,-7,-7,-24,-18,10,-11,-21,1652970158.2858524
-55,-18,-22,-18,-46,16,-19,-5,1652970158.2858524
-3,-1,-14,-10,19,4,27,-36,1652970158.2858524
61,6,-18,15,-4,13,-4,39,1652970158.2858524
21,5,2,-39,-5,0,15,-10,1652970158.3127804
-92,-14,-3,25,20,-5,-9,-21,1652970158.3127804
-20,1,37,69,-2,12,-7,-11,1652970158.3127804
-39,-8,-4,54,15,10,-5,-10,1652970158.3127804
35,-1,-1,-22,39,-12,-5,14,1652970158.3197587
31,-3,-32,-22,-41,3,-12,-5,1652970158.3197587
19,7,29,-35,-19,10,10,8,1652970158.3277373
-20,-3,4,-10,-15,7,2,-10,1652970158.3277373
32,2,-14,-1,-7,8,-3,6,1652970158.3426974
6,-2,-6,-13,37,23,11,14,1652970158.3426974
-37,-25,-11,0,-36,4,-14,-14,1652970158.3560455
30,31,18,-1,15,4,14,0,1652970158.3560455
15,-3,-7,-12,-30,15,-10,6,1652970158.370042
-16,-9,-6,8,41,12,8,5,1652970158.370042
22,8,-14,-43,-38,-2,-2,5,1652970158.3730335
-23,8,-3,-3,1,-18,-4,-5,1652970158.3730335
33,10,-10,-6,26,-8,13,6,1652970158.3800147
-6,6,5,7,-9,11,7,-5,1652970158.3800147
-11,-18,-7,-2,-21,24,-18,-9,1652970158.3879933
-11,-23,-19,-13,75,44,-4,-2,1652970158.3879933
-1,-3,-14,23,-33,30,-5,5,1652970158.4069507
45,27,39,5,-5,13,-1,4,1652970158.4069507
-29,-3,16,21,-8,-10,3,-19,1652970158.4139252
-30,-8,-5,-18,-16,-14,5,-2,1652970158.4139252
-60,-39,-15,0,19,5,4,3,1652970158.4298828
11,-25,-35,-43,-9,-5,8,8,1652970158.4298828
44,53,8,-40,-76,-18,-10,2,1652970158.4298828
-9,7,20,-3,-21,-33,-7,-3,1652970158.4298828
40,12,16,23,-3,-43,1,-3,1652970158.4458387
1,-1,-6,-5,-11,-21,-6,1,1652970158.4458387
6,-13,-10,28,86,-45,42,14,1652970158.4538176
17,-7,7,-9,-16,-5,-31,0,1652970158.4538176
-3,8,6,-4,1,-9,-9,-1,1652970158.4747276
75,7,-2,8,20,15,-5,6,1652970158.4747276
-48,-15,1,-2,6,-25,-4,11,1652970158.4747276
-58,-5,25,35,22,-106,29,-13,1652970158.4747276
-2,14,-16,27,-3,-59,-19,-15,1652970158.4897218
-77,-30,13,-16,-38,36,18,10,1652970158.4897218
100,47,-18,-25,41,127,1,9,1652970158.4897218
-2,-11,-14,-13,6,127,5,-2,1652970158.4897218
-12,-9,-11,-12,36,117,-1,-6,1652970158.5106657
5,-1,-18,-46,-22,98,1,-14,1652970158.5196657
-69,-27,8,12,-17,29,12,4,1652970158.5196657
91,9,-13,4,15,57,-13,7,1652970158.5196657
-26,24,67,24,-28,112,-25,-11,1652970158.5275874
-6,-4,0,14,11,88,-12,3,1652970158.5275874
-25,-18,3,19,2,92,-14,-11,1652970158.5335712
23,20,-11,-14,-29,8,18,5,1652970158.5356064
-32,-70,-20,0,41,-107,30,-26,1652970158.5565434
-40,70,8,20,-25,54,-22,14,1652970158.5625353
89,6,3,14,13,99,-4,6,1652970158.5625353
-58,17,14,9,-6,31,6,10,1652970158.5625353
115,21,1,-4,-19,45,31,33,1652970158.5715013
58,-37,5,0,23,-27,-10,-14,1652970158.5715013
-61,-10,-45,-50,-27,-47,-41,-25,1652970158.5715013
-44,-6,-13,-9,-11,35,-10,-4,1652970158.5715013
64,21,39,28,38,-65,27,25,1652970158.586461
-106,1,-26,-36,-30,-88,39,-13,1652970158.586461
109,-12,14,21,68,-112,-60,-47,1652970158.5914478
-46,-7,-22,-61,-14,-128,-10,11,1652970158.5934446
17,8,11,63,50,-61,-36,66,1652970158.6103983
27,20,13,22,87,-119,-12,-49,1652970158.6103983
-115,-12,-9,-31,-104,-107,35,-33,1652970158.6103983
-42,-52,-9,-44,18,-39,36,1,1652970158.6103983
-38,-31,0,61,29,98,46,52,1652970158.630346
99,13,-12,-96,-83,118,-16,56,1652970158.630346
-83,-4,-10,44,24,81,-43,-66,1652970158.630346
96,15,15,-40,-14,65,18,-25,1652970158.630346
-17,31,-10,-1,-71,52,-56,-13,1652970158.6443088
45,-3,19,97,120,-115,22,31,1652970158.6443088
18,25,16,19,-50,-128,3,21,1652970158.6542833
-57,-40,9,-2,-2,-104,-23,-38,1652970158.6542833
32,27,-30,-56,-50,-13,6,-13,1652970158.6742277
-62,-27,-11,-27,-51,95,-41,-1,1652970158.6742277
10,58,-8,-44,17,63,44,41,1652970158.6742277
68,-13,6,6,-1,-60,16,46,1652970158.6742277
-124,-57,20,-23,5,-76,-14,-50,1652970158.690185
-19,-3,-10,68,-17,-103,-9,-30,1652970158.690185
28,-16,0,1,-7,-62,14,39,1652970158.690185
17,6,-33,33,43,7,-39,-44,1652970158.690185
7,7,0,-35,12,-67,-2,-10,1652970158.7051451
21,2,1,8,-110,-41,18,26,1652970158.7051451
61,5,18,56,127,5,10,18,1652970158.7170837
-82,21,-22,18,-87,9,-18,-12,1652970158.7170837
-10,-8,37,31,110,91,24,-25,1652970158.7260976
-42,-35,0,-20,-9,2,2,13,1652970158.7260976
-13,-34,-14,-92,-128,-5,-4,-23,1652970158.7841198
19,-19,-17,-74,-21,37,-2,-32,1652970158.7841198
88,38,-42,-93,-39,46,32,51,1652970158.7961206
26,52,37,74,73,-19,13,60,1652970158.7961206
31,5,9,95,8,15,-3,14,1652970158.7961206
-39,0,24,47,116,83,21,19,1652970158.7961206
-39,-30,-17,-22,-106,-14,-38,-79,1652970158.7961206
14,-5,36,50,20,-9,0,-13,1652970158.7961206
3,-2,-23,-1,65,46,12,24,1652970158.7961206
-41,-25,48,-24,-106,-9,-8,-7,1652970158.7961206
-5,7,-19,1,114,-29,11,15,1652970158.7961206
-4,-12,15,-21,16,-41,1,-2,1652970158.7961206
77,33,50,97,-33,14,11,5,1652970158.7961206
19,15,0,35,72,36,-9,-4,1652970158.7961206
14,5,-8,-24,-114,64,29,57,1652970158.874318
-65,-18,-5,-9,-10,115,-35,-36,1652970158.874318
4,-25,-12,-23,33,21,3,-19,1652970158.8832395
41,39,-9,-66,-73,-28,-12,1,1652970158.8832395
16,-5,4,90,90,-128,0,8,1652970158.8832395
29,2,-23,33,69,-66,32,-18,1652970158.8832395
-99,-27,-28,-92,-8,-40,10,20,1652970158.8832395
12,-25,-10,39,-43,-43,-68,-33,1652970158.8832395
19,30,10,-22,-42,-11,7,71,1652970158.8832395
-8,-24,-6,-25,-35,15,-2,-4,1652970158.8832395
-2,13,7,7,33,-20,2,8,1652970158.8832395
34,18,-2,43,99,-86,41,23,1652970158.8832395
-54,-51,-58,-83,-102,-102,-46,-111,1652970158.8842878
40,74,50,45,58,-68,22,2,1652970158.8842878
-67,-34,35,16,-29,-76,-5,1,1652970158.8842878
87,19,26,16,2,38,41,29,1652970158.8842878
14,-17,-4,18,54,24,-40,-1,1652970158.9131591
-83,-14,-89,-128,-38,-25,-9,-8,1652970158.9131591
-35,18,68,64,27,75,-6,-43,1652970158.9131591
-25,-15,11,22,-68,49,-27,-5,1652970158.9131591
9,-18,30,25,-7,87,17,3,1652970158.9131591
2,-18,-41,-61,-29,62,-3,9,1652970158.9131591
83,-10,-65,-48,9,76,-8,29,1652970158.9131591
-78,-9,5,21,1,78,9,-3,1652970158.9131591
-2,12,-26,-57,-114,37,-7,-35,1652970158.932107
15,-14,29,54,73,57,3,-10,1652970158.932107
-15,6,-5,-41,54,13,-7,1,1652970158.932107
13,17,0,44,2,17,-2,-4,1652970158.932107
10,10,-7,-22,27,28,2,-1,1652970158.959067
-2,3,-6,6,-56,15,5,-7,1652970158.959067
-34,-11,9,30,4,-19,-11,-3,1652970158.959067
26,-5,-39,-70,-6,12,4,6,1652970158.959067
-19,-25,24,36,-19,34,-30,-30,1652970158.968043
4,21,15,-19,-46,102,-1,38,1652970158.968043
24,5,-17,-17,-1,75,10,12,1652970158.968043
-16,-15,-22,-11,13,-19,-2,-1,1652970158.968043
3,9,-2,-9,-11,-26,5,-4,1652970158.995968
15,1,-1,-8,4,-40,-12,-45,1652970158.995968
24,-6,3,25,-19,-59,6,11,1652970158.995968
-3,-6,5,-2,11,-17,-19,14,1652970158.995968
-73,-12,-8,21,13,-39,-6,-11,1652970159.0128906
2,-5,14,-22,16,-19,-4,-3,1652970159.0128906
-4,-7,-38,-17,-22,9,14,-4,1652970159.0128906
13,22,61,64,1,-14,8,0,1652970159.0128906
25,16,-9,-23,18,-26,10,18,1652970159.0288804
-6,-7,-11,12,-20,-45,-11,-7,1652970159.0288804
1,-2,-12,-38,-10,-40,-5,-7,1652970159.0288804
0,-3,-25,-26,-19,-25,-5,0,1652970159.0288804
-5,11,10,9,18,-18,1,4,1652970159.0588038
1,-3,15,29,-10,-23,10,-1,1652970159.0588038
10,3,0,-2,-10,-25,-5,-1,1652970159.0588038
-9,-1,-7,8,35,-3,6,1,1652970159.0588038
-13,-3,1,-15,-1,2,4,-3,1652970159.0827062
1,-4,4,29,-7,-33,-5,-7,1652970159.0827062
1,-1,-11,-42,-12,17,-7,3,1652970159.0827062
-9,3,6,52,7,0,4,5,1652970159.0827062
6,11,23,11,-17,-2,0,-1,1652970159.0886886
10,-4,-14,-31,-4,12,2,2,1652970159.0907176
-4,2,9,28,-7,-4,-8,-4,1652970159.0907176
-5,1,22,-26,-21,-18,-2,-2,1652970159.0907176
3,3,-4,-5,4,-17,-7,1,1652970159.1186507
2,-4,-11,-14,13,-8,-37,-2,1652970159.1186507
-9,-8,0,23,15,-1,-18,-9,1652970159.1186507
3,2,5,-17,-2,5,4,2,1652970159.1186507
4,6,-1,6,23,5,21,4,1652970159.1355975
-9,-2,-6,-17,-2,4,19,-5,1652970159.1355975
1,3,7,8,10,7,12,-1,1652970159.1355975
-4,-2,3,19,0,-14,36,-2,1652970159.1355975
1,-2,-9,-7,19,-18,9,-1,1652970159.1495278
2,5,14,9,7,21,3,2,1652970159.1525533
7,3,8,14,1,10,-13,4,1652970159.1525533
-2,0,5,17,22,31,-19,-3,1652970159.1525533
-2,-3,-1,10,-2,22,-27,-2,1652970159.1724925
-4,-6,-21,-32,-1,6,-13,-4,1652970159.1724925
6,5,-1,10,6,-72,4,5,1652970159.1724925
-3,-2,-17,-47,-28,-33,-4,0,1652970159.1804614
0,1,5,10,-4,11,7,-1,1652970159.1894364
5,0,8,27,5,33,12,1,1652970159.1894364
-3,-2,2,-20,-21,38,7,-5,1652970159.1954222
-6,-5,-17,-15,12,36,7,-2,1652970159.1954222
5,2,-7,-16,-27,12,-2,-1,1652970159.206393
0,-3,-2,13,20,38,5,-2,1652970159.206393
2,3,20,16,-20,6,15,3,1652970159.206393
-3,-3,-5,-11,-39,41,-1,-1,1652970159.206393
-1,1,14,-1,-4,36,-4,0,1652970159.2342916
-3,0,13,9,12,-10,-5,-4,1652970159.2342916
-1,-4,-8,7,7,-16,3,-2,1652970159.2342916
-2,-4,-6,17,15,16,-2,-1,1652970159.2342916
-9,-8,-9,-8,-3,-18,-13,-8,1652970159.2502477
2,4,-8,-28,-43,-15,2,1,1652970159.2502477
-5,-6,-27,-70,-3,4,-5,-3,1652970159.2502477
0,1,-1,4,22,0,-5,-2,1652970159.2502477
4,4,9,31,2,4,10,4,1652970159.2662396
-1,1,3,20,3,-16,-1,0,1652970159.2662396
-3,-1,-4,-5,1,12,-6,-6,1652970159.2662396
1,0,-12,-36,-47,-5,-5,0,1652970159.2662396
0,-2,-9,7,32,-4,8,2,1652970159.29413
-4,-5,6,-8,-23,-20,-10,-6,1652970159.29413
3,3,6,42,21,8,-1,2,1652970159.29413
-6,-6,-6,-9,8,-10,-4,-2,1652970159.29413
1,1,1,26,29,-5,-4,-2,1652970159.316141
3,2,-4,-9,-48,8,7,3,1652970159.316141
-1,0,-1,-10,16,6,-6,-3,1652970159.3191326
-1,0,4,-1,-14,-4,-11,-3,1652970159.3191326
0,-3,-17,-35,-7,2,1,1,1652970159.327111
1,3,15,49,53,7,5,6,1652970159.327111
-3,-3,0,-16,-28,-1,-1,-1,1652970159.327111
-3,-2,11,54,25,0,0,-2,1652970159.327111
-1,-1,-5,-42,-18,3,-5,-2,1652970159.348022
0,2,-5,-13,5,-3,0,-1,1652970159.348022
2,1,10,49,-1,0,3,2,1652970159.348022
-2,-3,0,-25,47,-9,2,1,1652970159.348022
-2,-2,-5,0,-80,-18,-2,-3,1652970159.3729882
-2,-5,-8,-13,-7,-40,-8,-5,1652970159.3729882
2,2,9,2,16,-18,4,3,1652970159.3729882
-7,-6,-12,9,-1,-21,-5,-3,1652970159.3729882
6,5,5,7,39,24,5,7,1652970159.3939517
-2,-1,1,1,-17,3,-9,-5,1652970159.3939517
1,-1,-7,-19,-19,-39,-1,0,1652970159.3939517
1,3,-2,-19,-3,-49,3,4,1652970159.3939517
-3,1,2,5,-4,-33,-2,-2,1652970159.4098914
-6,-3,-3,-11,-10,-117,-3,-4,1652970159.4098914
3,-7,2,5,15,-114,1,0,1652970159.4098914
-1,5,4,18,15,-128,-7,-5,1652970159.4108536
2,1,1,-4,-3,-119,2,-2,1652970159.43582
5,4,0,4,1,-2,5,4,1652970159.43582
-7,-1,1,-4,-15,42,-4,-2,1652970159.43582
-1,-3,-3,-10,-31,86,1,-1,1652970159.43582
-2,-2,-1,1,32,83,4,2,1652970159.4557772
4,0,-1,-6,-12,84,-1,-1,1652970159.4557772
-1,0,-3,-3,19,54,-2,-2,1652970159.4557772
-1,-2,-5,-7,-19,67,-2,-1,1652970159.4557772
1,-1,0,5,30,46,2,0,1652970159.4726892
-3,-7,-3,-11,-18,47,-2,-2,1652970159.4726892
-1,-1,-8,-19,-9,115,-7,-5,1652970159.4726892
3,3,2,5,18,45,3,2,1652970159.4726892
-6,-1,-3,13,3,120,-3,-1,1652970159.4946623
0,2,5,-12,-21,126,1,0,1652970159.4946623
-2,0,-7,-5,-3,65,-3,-2,1652970159.4966602
2,1,0,-3,-7,127,5,2,1652970159.4966602
-1,0,-2,-9,-9,82,-4,-1,1652970159.505601
-5,-6,-3,3,13,35,-6,-2,1652970159.505601
3,4,2,25,-14,-67,3,1,1652970159.505601
0,2,4,-13,11,-2,1,-2,1652970159.505601
-3,-3,-4,-7,-20,30,-1,-2,1652970159.5265915
2,2,0,5,28,-37,8,2,1652970159.535567
-2,-1,-3,-6,-19,-73,-8,-3,1652970159.535567
-4,-7,-7,-3,-14,-128,-11,-5,1652970159.535567
4,3,4,2,-1,-128,0,1,1652970159.552522
-1,-2,-1,2,4,-122,-6,-3,1652970159.552522
-3,-3,-2,5,16,-110,0,1,1652970159.552522
-1,-1,1,8,-1,-85,8,2,1652970159.552522
0,-4,-1,-6,-2,-94,4,3,1652970159.5684788
-4,-4,-6,-1,13,-128,-9,-5,1652970159.5684788
-2,-2,-1,-18,-23,-112,-2,-2,1652970159.5684788
-4,-5,0,22,20,-86,-5,-5,1652970159.5684788
0,-1,7,6,-4,-41,4,0,1652970159.6248765
2,0,-7,-40,-47,-9,4,2,1652970159.6248765
2,1,2,18,45,62,5,1,1652970159.6248765
3,-1,-3,-20,-14,54,11,4,1652970159.6248765
-4,-3,-2,43,3,5,-10,-3,1652970159.6248765
-2,2,-1,-5,9,53,-6,-1,1652970159.6248765
2,4,0,-14,19,66,-1,0,1652970159.6248765
2,3,5,18,-8,40,-10,-1,1652970159.6248765
5,2,2,-15,-2,15,-1,-2,1652970159.6248765
-2,-3,-5,0,1,21,-2,1,1652970159.6248765
-14,-2,3,14,-14,25,-1,-9,1652970159.6328256
-2,-6,-10,-17,-24,10,-3,1,1652970159.6328256
-1,0,-11,-8,25,106,10,1,1652970159.648784
10,3,13,18,-13,120,7,-1,1652970159.648784
-11,-11,-3,-4,-6,35,-3,1,1652970159.648784
2,9,17,33,52,-77,4,2,1652970159.648784
0,-1,1,-13,-36,-128,-10,-5,1652970159.676737
-7,-16,-14,-13,4,-128,-5,-3,1652970159.676737
19,11,-1,1,-6,-120,4,6,1652970159.676737
0,4,4,-10,-7,-104,-3,-3,1652970159.676737
2,4,-6,-14,6,-128,-2,1,1652970159.6857278
-4,3,9,37,-6,-71,6,-1,1652970159.693696
-19,-33,-15,13,-3,6,-8,-8,1652970159.693696
10,10,-5,-14,-20,52,-4,-1,1652970159.693696
5,9,16,-7,17,67,4,3,1652970159.710647
-7,-5,7,25,5,51,-4,-3,1652970159.710647
2,5,3,-13,-3,47,2,0,1652970159.710647
2,-6,-7,-2,0,61,1,5,1652970159.710647
-7,1,3,-17,-31,32,-4,-4,1652970159.7301726
-3,-3,-10,1,11,15,1,0,1652970159.7301726
25,10,-14,-27,-2,20,11,8,1652970159.7381482
-29,-8,-3,-16,-11,23,-6,-10,1652970159.757112
-7,-36,-12,-8,-7,14,-4,-5,1652970159.7641065
-5,23,-5,-10,13,7,-5,-3,1652970159.7641065
14,16,23,38,21,15,9,4,1652970159.7641065
9,3,-3,-1,-17,16,-5,0,1652970159.7641065
-17,-2,4,21,12,1,-7,-6,1652970159.7710567
2,-15,-13,-29,7,1,5,0,1652970159.7740812
-13,-9,-25,-41,-38,2,-5,-5,1652970159.7740812
1,-1,6,41,28,6,13,1,1652970159.7740812
4,0,-26,-18,7,-13,0,-1,1652970159.7960231
6,12,43,-5,15,-14,3,4,1652970159.7980165
-3,0,-24,-5,11,2,-2,0,1652970159.7980165
3,-2,3,3,-34,10,1,1,1652970159.7980165
1,2,3,-3,-13,13,-5,-2,1652970159.8089862
19,-5,-3,4,-2,4,6,9,1652970159.8089862
-15,7,8,-1,-9,1,0,-4,1652970159.8089862
-7,-10,-11,-10,-3,11,-7,-2,1652970159.8089862
-3,-7,-6,4,2,5,1,5,1652970159.827634
-4,2,-7,-7,-11,1,-5,-15,1652970159.827634
27,14,9,10,17,-6,-1,4,1652970159.8325896
-18,29,16,13,32,2,2,8,1652970159.8325896
-13,8,-8,-15,-14,-1,-2,-17,1652970159.8505404
-7,-11,-12,-16,-2,-1,8,10,1652970159.8505404
-24,-13,27,34,-16,1,-14,-8,1652970159.8625083
23,3,-5,-16,6,-18,8,8,1652970159.8625083
30,4,19,40,32,-7,11,14,1652970159.8714838
-1,9,-7,12,-2,6,-7,-3,1652970159.8714838
9,0,-2,-28,-7,8,9,2,1652970159.8714838
-16,-17,-17,-30,-24,5,-10,-12,1652970159.8714838
-31,-21,-8,4,-1,15,-19,-5,1652970159.8944552
0,-1,21,25,-11,-6,-10,-6,1652970159.8944552
26,12,4,11,-4,6,0,8,1652970159.89645
9,6,23,19,24,-24,10,6,1652970159.89645
-13,0,-22,-29,-24,-23,-4,-9,1652970159.9114115
-8,-15,-19,-8,20,-10,-2,-3,1652970159.9114115
-14,-14,5,-16,16,-12,-5,-2,1652970159.9114115
-8,-9,-29,-6,-15,16,-4,-9,1652970159.9114115
22,19,17,34,-2,13,10,8,1652970159.9313626
2,10,34,26,-15,10,3,2,1652970159.9313626
-7,-8,-5,1,1,7,0,-4,1652970159.9313626
11,-7,0,-7,1,-8,-7,-6,1652970159.9313626
15,1,5,-1,5,-2,5,6,1652970159.947314
-10,5,-17,-13,5,-12,-1,-1,1652970159.947314
-2,1,3,17,-9,-32,2,-4,1652970159.9542625
-4,-12,-15,-24,-8,-6,2,0,1652970159.9542625
-11,-9,-16,0,1,-1,-6,-4,1652970159.9722471
12,19,23,11,12,13,6,5,1652970159.9722471
22,-2,-9,-4,19,20,-1,4,1652970159.9722471
-15,11,-3,-7,-21,23,5,-5,1652970159.9722471
63,16,43,46,8,52,2,5,1652970159.9921997
-30,-9,-31,-32,7,74,-5,0,1652970159.9921997
-36,-14,-7,-6,28,64,10,2,1652970159.9921997
-44,-28,-14,-2,26,15,4,2,1652970159.9921997
-15,-12,-15,-24,-60,-24,-14,-11,1652970160.0081525
19,1,-27,-26,-16,-42,-4,-1,1652970160.0081525
29,34,18,-9,-23,-30,-6,1,1652970160.0081525
3,14,23,33,27,-17,2,-3,1652970160.0081525
-25,-24,-11,-12,42,-22,8,3,1652970160.0313413
22,-10,5,2,11,-14,7,-3,1652970160.0313413
0,28,-21,-10,-25,-32,-11,-5,1652970160.0313413
8,4,10,-9,-4,-14,-10,-5,1652970160.0313413
9,-6,-2,0,4,1,-1,0,1652970160.0523026
3,2,1,-10,-5,24,8,3,1652970160.0523026
-13,21,9,4,-3,-6,-4,-3,1652970160.0523026
-22,-13,-15,-7,-29,-8,1,-3,1652970160.0523026
-15,29,19,11,34,-19,-4,2,1652970160.0685272
-11,-26,3,20,18,-2,8,-6,1652970160.0685272
3,-11,14,-12,9,13,-9,-6,1652970160.0685272
22,18,8,1,-14,13,9,13,1652970160.0685272
-10,-15,-31,19,26,4,13,2,1652970160.1369133
-6,-9,-10,-13,-12,0,-27,-18,1652970160.1369133
30,-14,-7,7,19,2,3,-1,1652970160.1369133
18,18,-9,-38,-53,-8,-16,-12,1652970160.1369133
13,3,-15,-30,-50,4,27,13,1652970160.1369133
-8,-16,8,13,32,-10,25,16,1652970160.1369133
-45,-16,16,20,-13,-100,-15,-12,1652970160.1369133
-11,-41,-6,35,52,-108,-35,-2,1652970160.1369133
9,30,10,-31,-64,-126,-21,-7,1652970160.1577823
14,33,11,11,48,-128,-8,-2,1652970160.1577823
44,-9,-30,-16,7,-73,14,16,1652970160.1577823
10,37,28,7,72,107,6,-1,1652970160.1577823
-47,-39,29,48,13,121,-13,-21,1652970160.1657567
1,6,-12,21,6,127,20,14,1652970160.1657567
-39,0,2,56,61,127,0,-13,1652970160.1657567
27,-12,-18,-84,-87,100,-13,-1,1652970160.1657567
4,48,20,-4,37,87,6,16,1652970160.1667187
-10,-13,2,-5,-40,-8,-8,-3,1652970160.1667187
2,-48,-48,-40,-40,-49,-10,-8,1652970160.1747272
14,17,17,-15,61,-49,4,-8,1652970160.1747272
-72,-70,-46,44,47,-63,2,-32,1652970160.2288783
6,-34,-11,-11,-52,-17,-20,-3,1652970160.2288783
-27,87,-14,17,34,-54,18,33,1652970160.2288783
-1,6,-9,-18,43,-8,21,26,1652970160.2288783
33,25,30,3,-35,-34,-3,3,1652970160.2607994
64,-104,-6,-1,49,-95,-2,-25,1652970160.2607994
-68,16,-7,-65,-107,-4,-38,-82,1652970160.2607994
-11,64,2,99,39,-38,-7,-7,1652970160.2607994
-9,45,58,9,78,42,71,83,1652970160.2607994
11,18,-19,-2,-71,40,-7,-47,1652970160.2607994
109,-56,-12,-29,34,-21,0,34,1652970160.2607994
7,-14,-11,-30,-36,-37,-13,-40,1652970160.3004346
7,-19,-34,11,43,-128,-19,-21,1652970160.3004346
-32,-2,-3,-55,60,-34,3,6,1652970160.3004346
0,-4,41,-5,-93,50,21,-28,1652970160.3004346
25,13,98,97,-47,24,-3,19,1652970160.3004346
-29,-81,-17,-9,-37,47,-15,10,1652970160.3133595
85,108,18,23,15,62,3,32,1652970160.3133595
48,27,-57,-33,28,67,-16,-5,1652970160.3133595
-79,-46,12,-15,-115,9,12,-16,1652970160.3133595
37,-10,-39,-118,-128,-14,9,11,1652970160.3133595
-91,-65,-17,-14,-115,25,-23,19,1652970160.3133595
53,33,-59,-85,32,32,39,58,1652970160.3133595
21,7,16,88,-123,-17,-6,-18,1652970160.3133595
-10,-3,54,43,5,-30,-58,-121,1652970160.3662238
13,-1,-61,-90,-19,-20,-6,79,1652970160.3662238
-42,9,-17,30,-7,10,54,56,1652970160.3662238
1,-27,-24,-58,7,-16,2,12,1652970160.3662238
-16,37,-69,-29,-101,-31,-2,-25,1652970160.4021318
24,28,71,63,-66,-31,4,-27,1652970160.4021318
-16,-37,-6,-8,-61,-8,-16,-15,1652970160.4021318
-13,13,-38,-40,-47,-5,2,-6,1652970160.4021318
22,2,-9,-79,-97,45,5,23,1652970160.4021318
-24,-6,-21,85,-91,-24,-11,-9,1652970160.4021318
37,60,78,31,1,-13,17,27,1652970160.4021318
-59,-77,-23,18,99,4,10,-41,1652970160.4021318
-9,23,3,-56,97,19,-22,-3,1652970160.4021318
-52,-20,-41,-26,95,-8,4,-23,1652970160.4021318
31,6,8,22,83,-40,-8,-13,1652970160.4180424
44,-26,24,34,82,-28,-10,47,1652970160.4180424
-27,-42,-40,-17,63,0,-16,-45,1652970160.4180424
52,29,35,57,80,-41,13,8,1652970160.4180424
-20,-32,31,7,36,-20,-1,-11,1652970160.4180424
35,9,-37,-68,39,23,7,17,1652970160.4180424
36,16,71,60,36,2,4,34,1652970160.446997
39,-21,-36,-85,35,12,-17,-21,1652970160.446997
-64,-37,27,93,19,-15,-27,-28,1652970160.446997
-33,-17,-34,-43,55,-2,17,4,1652970160.446997
-1,-1,-16,18,-19,-21,8,-17,1652970160.489761
-91,7,76,67,60,38,-5,-20,1652970160.489761
40,-15,-30,-53,-80,-17,1,9,1652970160.489761
2,-10,2,-31,-31,15,-19,-24,1652970160.489761
72,40,10,19,98,-1,3,53,1652970160.504715
-46,-42,-17,15,-71,-6,15,3,1652970160.504715
-15,16,21,-8,-12,-35,-20,-33,1652970160.504715
12,-3,-47,55,-12,-2,-11,17,1652970160.504715
22,20,31,1,-19,-27,6,23,1652970160.504715
5,19,-8,-27,10,-2,3,0,1652970160.504715
-15,-20,16,-1,24,12,10,-14,1652970160.504715
24,3,-8,-16,59,-53,9,12,1652970160.504715
-21,-30,-39,-27,66,3,3,15,1652970160.5057406
13,25,-26,-19,27,-1,0,10,1652970160.5057406
-35,-30,-1,-15,22,-17,-4,-44,1652970160.5057406
9,56,5,-59,13,-26,-6,-6,1652970160.5057406
-22,-22,22,93,16,-38,7,16,1652970160.561696
10,-11,-17,-36,96,-4,1,-5,1652970160.561696
-13,-1,5,18,73,21,-11,7,1652970160.561696
-15,-26,-22,-15,24,-7,-4,4,1652970160.561696
-10,16,3,0,44,-13,6,-6,1652970160.5736706
7,33,5,-10,45,23,-23,-28,1652970160.5736706
-22,-10,1,5,-16,-4,1,-14,1652970160.5736706
43,3,4,24,41,4,10,61,1652970160.5736706
-19,0,-2,-19,-35,31,-6,-45,1652970160.5736706
8,4,16,14,-34,-1,8,21,1652970160.5736706
-12,-4,6,8,42,13,-2,0,1652970160.5736706
-26,0,-1,2,-6,-12,-3,-29,1652970160.5736706
28,-3,-21,-40,-19,5,-2,7,1652970160.595176
0,-9,1,-19,113,-75,6,-2,1652970160.595176
-11,28,18,73,117,-69,-7,4,1652970160.595176
10,6,22,-11,127,-3,5,-6,1652970160.595176
2,7,25,45,127,43,-7,-1,1652970160.6081474
-8,-2,7,-1,68,32,7,-5,1652970160.6081474
6,-16,-23,-38,43,60,-12,11,1652970160.6081474
3,7,9,35,-30,2,2,-5,1652970160.6081474
-11,-3,-2,-19,-116,-110,0,-5,1652970160.6714072
-10,-11,1,4,-81,-121,6,-2,1652970160.6744006
7,-11,-12,-7,-88,-83,-9,14,1652970160.6744006
1,8,4,14,-111,-32,-2,-6,1652970160.6744006
-12,-1,-24,-95,-113,75,-3,-4,1652970160.6744006
19,8,21,73,-128,-21,1,1,1652970160.6744006
2,-1,7,2,-116,81,-1,2,1652970160.6744006
-14,-6,-3,-3,-107,115,2,-8,1652970160.6744006
-8,-1,0,2,-81,125,-4,0,1652970160.6744006
-18,4,-15,-31,-77,127,-5,-3,1652970160.6744006
0,-9,-3,-4,-126,127,7,7,1652970160.6744006
-10,-3,5,-1,-117,79,0,-6,1652970160.6744006
0,-9,-21,-5,-1,17,1,2,1652970160.6951663
8,-1,-13,-15,-61,2,-5,-1,1652970160.6951663
5,-1,-1,14,-29,-43,4,1,1652970160.6951663
2,-2,13,9,-55,-40,0,-5,1652970160.6951663
6,4,7,15,-61,-93,-11,2,1652970160.7071753
-3,0,-11,-18,-60,-86,-4,0,1652970160.7071753
1,1,16,17,-41,-96,-5,3,1652970160.7071753
-5,-1,-3,-6,-2,-70,-3,-3,1652970160.7071753
1,-4,-6,31,0,-24,7,0,1652970160.7640638
-1,6,0,-28,-10,7,21,1,1652970160.7640638
2,-4,-35,-76,-5,-21,-2,0,1652970160.7640638
1,1,8,68,25,-31,-6,-2,1652970160.7640638
-1,2,9,14,7,-24,-8,-1,1652970160.7640638
0,3,0,11,11,7,-10,0,1652970160.7640638
-2,-4,-5,-29,6,-1,-4,-3,1652970160.7640638
-2,-2,2,-18,15,10,0,-4,1652970160.7640638
3,-2,-10,-2,18,-8,0,2,1652970160.8094304
-3,1,12,15,5,30,4,-3,1652970160.8094304
-1,-4,-6,-3,15,25,6,2,1652970160.8094304
-3,0,3,-10,11,-12,-2,-3,1652970160.8094304
2,0,-3,-7,-23,-15,6,0,1652970160.8253725
3,1,12,12,4,14,-2,1,1652970160.8253725
-2,-10,7,22,2,-3,6,0,1652970160.8253725
3,11,-3,-6,2,5,3,-1,1652970160.8253725
0,-2,8,8,-5,-6,5,2,1652970160.8253725
-1,-3,-6,-14,12,-11,-8,-1,1652970160.8253725
-2,0,-6,12,7,-3,-6,-2,1652970160.8253725
-2,-5,1,4,13,-21,-3,-3,1652970160.8253725
4,2,3,-3,1,-15,1,3,1652970160.8253725
-1,-1,-2,-33,-14,-15,-4,1,1652970160.8253725
-1,-1,-14,1,9,-36,2,1,1652970160.8253725
3,5,28,72,75,-46,4,3,1652970160.8253725
-2,2,-3,-7,-7,-38,-2,0,1652970160.839321
-3,1,20,13,27,41,-2,-1,1652970160.839321
-2,-1,1,12,-37,26,-6,-6,1652970160.839321
0,-5,-8,-1,-5,19,-1,-2,1652970160.839321
0,-3,0,-1,22,7,-2,-3,1652970160.8492653
-2,-3,-4,-16,2,-9,3,0,1652970160.8492653
-3,-1,-7,-31,7,-26,-1,1,1652970160.8492653
0,-2,-8,-26,-14,-27,0,3,1652970160.8492653
-4,-4,-4,5,3,-78,-9,-4,1652970160.8772252
3,2,-5,-2,-13,-54,0,1,1652970160.8772252
1,2,8,7,16,-35,1,-1,1652970160.8772252
1,-3,-6,-37,-20,78,3,-1,1652970160.8772252
-1,-1,-3,41,23,109,2,1,1652970160.9371269
-1,1,5,40,15,46,-3,-2,1652970160.9371269
-1,0,11,-11,38,44,-1,0,1652970160.9371269
-5,-4,-12,-26,-71,72,-5,-4,1652970160.9371269
0,1,-1,-21,19,122,1,-1,1652970160.948075
-2,-1,-7,-17,-39,127,-6,-4,1652970160.948075
2,2,13,14,11,116,1,1,1652970160.948075
-4,-1,-6,-28,-1,13,-1,-3,1652970160.948075
2,4,18,96,87,23,9,3,1652970160.948075
-5,-4,-13,-59,-13,-43,-3,-3,1652970160.948075
-3,-2,-10,-8,-39,-69,-6,-3,1652970160.948075
0,-1,7,9,-11,-62,0,-4,1652970160.948075
-3,-4,-7,-46,-53,-58,-4,-1,1652970160.9798975
-1,-2,9,-15,46,-113,2,1,1652970160.9798975
0,-2,-5,-21,21,125,-2,0,1652970160.9798975
2,-1,-3,-17,6,84,0,9,1652970160.9798975
-1,-1,6,51,-14,116,-5,-24,1652970160.9798975
2,-1,-7,14,31,127,14,20,1652970160.9798975
-4,-2,-4,-4,16,119,15,6,1652970160.9798975
1,-2,-2,21,51,79,-2,-2,1652970160.9798975
0,2,-4,-52,-80,-6,-9,6,1652970161.036328
-1,4,7,44,74,-5,-10,-10,1652970161.036328
-1,1,2,15,-27,-111,-33,-24,1652970161.036328
-4,-3,-4,9,56,-106,21,30,1652970161.036328
1,-3,0,-11,-27,-128,7,-13,1652970161.081309
-5,-4,-7,4,-57,-111,-2,-3,1652970161.081309
-5,-1,0,-9,-4,-116,8,4,1652970161.081309
6,-15,-5,-9,-38,-99,-15,-17,1652970161.081309
1,9,-2,-22,36,-78,-4,6,1652970161.081309
4,0,-1,19,25,-65,8,-2,1652970161.081309
1,0,2,3,-17,-50,3,-1,1652970161.0921702
-9,-5,-3,-1,6,-59,-10,-6,1652970161.0961597
5,-3,3,5,7,-39,7,26,1652970161.0961597
-3,3,3,33,-59,-18,-4,-27,1652970161.0961597
-5,1,7,-24,18,-104,-9,-43,1652970161.0961597
5,6,-6,10,-14,-113,19,77,1652970161.0961597
-3,-7,-13,-29,28,-111,6,0,1652970161.0961597
-2,1,-7,-20,-9,-103,-4,18,1652970161.0961597
2,1,3,17,21,-81,-12,-2,1652970161.0961597
0,8,9,19,19,-37,-3,-23,1652970161.0961597
-6,-1,-3,-13,-2,-24,-6,-5,1652970161.0971584
-1,-6,3,-3,30,3,7,3,1652970161.0971584
1,-5,-3,-12,11,-8,5,2,1652970161.105135
-1,2,7,13,17,-4,-8,-18,1652970161.1071296
0,-7,2,47,19,0,3,3,1652970161.1161065
-3,-3,-4,-33,1,23,-2,-13,1652970161.1161065
2,1,-1,0,-36,9,7,14,1652970161.1220896
-4,2,-8,-14,32,-17,-1,-7,1652970161.1220896
-1,-2,-10,-72,-45,4,-1,-3,1652970161.1911757
0,6,8,40,46,-37,-7,1,1652970161.1911757
3,3,11,25,-46,4,0,11,1652970161.1911757
0,-3,6,24,-38,20,-6,-11,1652970161.1911757
-1,-2,-3,-34,20,17,-6,-7,1652970161.1911757
-1,-1,-3,-24,-15,16,-2,6,1652970161.1911757
-6,-4,-14,4,12,28,6,12,1652970161.1911757
-3,-5,-1,-41,-43,19,-1,-25,1652970161.1911757
6,3,-2,26,18,28,7,24,1652970161.1911757
2,10,-2,5,-4,30,-17,-24,1652970161.1911757
-7,-5,2,49,6,13,-4,6,1652970161.2309797
-3,2,6,50,38,25,3,-12,1652970161.2309797
-7,-7,-8,-71,-73,13,-1,-1,1652970161.2429335
1,-1,-3,-31,-25,9,6,10,1652970161.2429335
4,5,1,-2,-20,16,4,-4,1652970161.2429335
-2,2,-1,-10,29,16,-5,1,1652970161.2429335
0,-1,-1,25,29,15,-1,-5,1652970161.2429335
1,0,1,31,-41,0,3,2,1652970161.2429335
1,0,2,-9,7,12,0,1,1652970161.2429335
1,-5,-11,-65,-27,8,-2,3,1652970161.2429335
-2,1,9,50,33,6,-1,-4,1652970161.2429335
-1,-5,-11,-12,-50,5,-3,0,1652970161.2429335
-1,-2,5,41,23,5,1,5,1652970161.2438967
0,0,-26,-48,-26,10,7,-1,1652970161.2438967
0,1,13,31,35,4,-2,-9,1652970161.2529073
-5,-1,21,45,2,1,-3,1,1652970161.2529073
4,4,10,-3,36,20,0,4,1652970161.2529073
0,-2,-2,4,-20,1,-6,-4,1652970161.2529073
1,-3,-16,-21,-27,5,-5,-6,1652970161.2688637
0,-4,-4,-13,10,10,3,3,1652970161.2688637
0,0,-6,-33,-32,1,3,2,1652970161.2768412
3,0,2,-4,15,-2,-2,-2,1652970161.2768412
-3,-1,0,30,84,28,3,1,1652970161.2967868
-2,-3,0,3,-25,-27,-3,0,1652970161.2967868
-3,-1,-10,3,4,-3,-3,-3,1652970161.3227427
-3,-3,-2,-27,-14,-11,-3,0,1652970161.3227427
-1,1,1,-6,-27,-5,1,-2,1652970161.3337588
2,1,2,-5,29,12,3,-1,1652970161.3337588
2,0,0,15,26,3,3,7,1652970161.3337588
0,3,4,25,-40,-12,-3,9,1652970161.3337588
-2,-4,-5,-31,7,20,0,-13,1652970161.3337588
-3,-1,-5,-14,7,5,-1,-2,1652970161.3337588
-1,-5,-5,-5,6,5,-1,-6,1652970161.3417265
2,3,4,13,22,8,2,5,1652970161.3417265
-2,2,8,10,-22,-9,-3,-1,1652970161.3497014
-4,-2,-1,4,-1,-1,-1,0,1652970161.3497014
0,-2,-1,-22,-2,-6,0,2,1652970161.3586757
2,1,-13,6,11,8,-1,-7,1652970161.3586757
0,0,11,-12,-49,-9,-4,1,1652970161.377635
-2,0,4,23,14,0,-2,-3,1652970161.377635
-2,-4,1,-3,45,-5,5,10,1652970161.377635
-3,-5,-3,-12,-4,3,-3,-4,1652970161.3786383
-1,-2,-7,19,-2,7,4,-1,1652970161.4025576
3,-1,-1,-10,-7,9,-1,3,1652970161.4025576
-1,1,-1,8,-7,-1,-4,-4,1652970161.4025576
1,-2,-7,-6,8,6,0,-6,1652970161.4025576
1,4,11,13,-4,-9,-3,2,1652970161.4115345
-2,0,15,28,-10,-8,-2,0,1652970161.4115345
1,1,-1,-37,42,13,5,0,1652970161.4195132
-6,-5,3,14,-38,4,-3,-3,1652970161.4195132
-2,-4,-7,25,-1,-6,-4,-5,1652970161.4847374
-1,-2,-10,-14,-9,-6,-1,0,1652970161.4847374
1,4,-4,1,-14,-2,-2,-3,1652970161.4847374
1,2,2,-19,-4,-1,5,2,1652970161.4847374
-2,1,-4,-20,-1,-8,-6,0,1652970161.4847374
3,-1,-1,43,-8,0,1,3,1652970161.4847374
-3,2,9,16,30,5,1,2,1652970161.4847374
-3,-1,16,-9,9,-3,1,0,1652970161.4847374
