0.1026736444248929,0.15984801603606824,0.7364676669934209,1.5176530909825774,1.3332852331055831,1.003950194569737,0.21316854063874466,0.1288219232002319
0.10330311418941934,0.1613414751388364,0.7483527090480366,1.5280232566388252,1.3434543073751555,1.0130983595460483,0.21545341048483357,0.13003173518478198
0.10393253007537022,0.16276804604500852,0.7597944126208793,1.5372899364209665,1.3531815267515654,1.0216397818059033,0.2180260316855875,0.1312372706523407
0.10458803057981116,0.16424291942696737,0.7711820967239119,1.5454319637927274,1.3628444290922808,1.0298733920329324,0.22113216813507833,0.13253784088921108
0.10529459313378894,0.16583611783614594,0.782473684991541,1.5529650541494187,1.373058274199005,1.038479898949703,0.22461191736261427,0.13394811827856762
0.1060693744897311,0.16764793643679093,0.7941505267400273,1.5601089755611985,1.3841703586951657,1.0480565825392132,0.22833202283413218,0.13542854404734
0.1069354059239259,0.1696403817873033,0.8069200619797388,1.5676359416518333,1.39569633337128,1.0579904166649832,0.23213804298942253,0.1369478967316577
0.10793468762437508,0.17168333375974182,0.8203814944359282,1.5757627342515526,1.407192555331667,1.0673938023100527,0.235815305244082,0.13850301787281014
0.10914738168556308,0.1739598318982814,0.8342510662959741,1.5837601019747376,1.418522185522414,1.0761135635927026,0.23934579691857408,0.14012428150565182
0.11054967130387379,0.17653776078121367,0.8484709073186353,1.591030898283521,1.4295544922455243,1.0842512213909457,0.2427258017041114,0.14178050427749328
0.11201161635768181,0.1791274083908056,0.8622097532472592,1.5971717767451203,1.4408333073832869,1.0918175294385688,0.24588505053306425,0.14343513824454399
0.11346903943910855,0.18159873220599004,0.8752546058943145,1.6028811343148748,1.4525777239591242,1.0989503588821075,0.24878328491550764,0.14506659714446102
0.11488730023672822,0.18400797587154868,0.8881311621984366,1.609395740892313,1.4642814674171738,1.1062433388268864,0.2514691652441559,0.14660076751539022
0.11622661563423552,0.18637556905394045,0.9009546513810162,1.616687685787364,1.4752664106295459,1.1139632788881852,0.2539961282783914,0.14803371006136704
0.1174891232849129,0.18864754833672015,0.9134007594386256,1.624321677532547,1.4849848786481343,1.1216562707742235,0.2564354998994373,0.1494553577607813
0.11871705782533842,0.19086599102227214,0.9250660268414517,1.6326097796045866,1.4933889219098258,1.128767810220918,0.2588489050377252,0.1508848867984265
0.1198906783208887,0.19305782566599583,0.9358460908534403,1.641996953838216,1.5006077783642375,1.134888398210701,0.26110810898370024,0.1522336571573589
0.12095103841725688,0.19514854698346953,0.9463908054309778,1.6523595163388098,1.5070537100053143,1.140215651712936,0.26317082995797975,0.15345707448210613
0.12190872223911513,0.1972073900715207,0.9574824743810415,1.6627157282992489,1.5129947765172687,1.1450864568950567,0.2651706480914035,0.15459283479402816
0.1228408126328309,0.1993607856879128,0.9687790668881401,1.6719794288114511,1.5180460245131222,1.1493153682469435,0.267201969571389,0.1557305682443987
0.1238010095540517,0.2015557442823007,0.9796322918989694,1.6797612498292682,1.521920319777551,1.1530933462240613,0.2693751254874972,0.15695600808270405
0.12474704886269355,0.20360113387193435,0.9900308805761661,1.68624510866445,1.524598208422851,1.1572319678795708,0.27161499465176003,0.1582240441029326
0.12569200436424677,0.20547473566614358,0.9997906578992147,1.6918421917532953,1.5262962454050826,1.1620124333264916,0.27379616832631065,0.15950485720717175
0.12676872994563562,0.20734935494157075,1.0085087467075469,1.6971271937686279,1.5281050669294696,1.1670746234059175,0.27607286836265443,0.16089694491916753
0.12797714580793998,0.209310055060804,1.0164626925449518,1.702469615798115,1.5307936830861457,1.172441523904419,0.27859252247302113,0.16238075577341404
0.12922344512341488,0.21132445851940412,1.0242262714682335,1.7073068706174181,1.533612554408253,1.1781816292313352,0.2813889418803114,0.163904069615649
0.13051146434813907,0.2133281132023666,1.0315796243967081,1.7113486869846817,1.5360585384380576,1.1837383032398714,0.2844273417553015,0.16551718676208532
0.13184483294200422,0.21534629562778668,1.0381122639397007,1.7147728206059611,1.5381655359072757,1.1890138632543454,0.28762072763969754,0.16710098610914034
0.1332336648141413,0.21749008726748773,1.0439538377490842,1.7171481630380887,1.539311078110156,1.1946973995616064,0.2909258516302931,0.1685081216521832
0.13464077913510386,0.21965835655474633,1.0490752497009737,1.7181636420790105,1.5390477657572883,1.200832555461675,0.2942744935261617,0.16977834182176813
0.13595704767146571,0.22174097118902078,1.053890636325942,1.7182250416274671,1.5379117794435593,1.2066583271699187,0.297534496170287,0.17094979991085033
0.13713165984058204,0.2237797584999382,1.059217647862577,1.7182028215071374,1.53706537938956,1.2121223613876786,0.3006263327243757,0.1720390286965969
0.1381562655859778,0.22570110924717998,1.0647146682386484,1.7181608105608108,1.5371787657091371,1.2179638717217414,0.3036078137306735,0.17308197975204256
0.13903639444385418,0.22744141230904086,1.0695934317917837,1.717237421299221,1.5378357067157895,1.2240605255301973,0.3064875423600271,0.1740194836472019
0.13984433468176416,0.22903359901731496,1.0737958641058143,1.7153715573447947,1.5383299799637964,1.2294860595217199,0.30916018493607267,0.17484184571949904
0.1406426169242832,0.23051599858022295,1.0777083403934082,1.7129670180790872,1.538507714307137,1.2338766147488713,0.31154524298756686,0.17562682116671824
0.14137740254865241,0.2319320665061429,1.081707411309193,1.7098623270638658,1.5384159235424053,1.2372328130578327,0.3136127955343967,0.17634853301384365
0.14199725386265324,0.23331006201749702,1.0859927174996713,1.7059772464806695,1.5381265824453167,1.239850429859621,0.3154214457874304,0.1769555460644464
0.14251993897025206,0.23459013564739978,1.0902133853352003,1.7013761838050114,1.5379561090580525,1.2426482659503966,0.3170876738183971,0.17743888676587166
0.14299597741743855,0.2356683316250739,1.0936794956986176,1.696676373029367,1.5375919485174756,1.2458297390628421,0.31876315112778614,0.17786363641642763
0.14348711029913366,0.23651226615678703,1.096280087538075,1.6927223870186623,1.536260612693991,1.2491745276087953,0.3206263789714342,0.1783121625488262
0.14403900918826165,0.23713130461877172,1.0985115932370395,1.6890711031348769,1.5344734335794992,1.2530935204311442,0.32292815178543816,0.1788231146260872
0.14468861631925156,0.23768171351643502,1.1010631789144876,1.6847969164202363,1.5333150125639574,1.2575044935524224,0.3259413717852871,0.17950026182084491
0.14541100063446527,0.23846681179017257,1.1042995710644206,1.6798775347630648,1.5325451939809642,1.2619472217850807,0.329438320350071,0.18032235625360946
0.1461086987310486,0.23949570060268197,1.1076998113325391,1.6746934149281472,1.5312920316776808,1.2659814489786623,0.3327861785068856,0.18108841270039333
0.14673530811929336,0.24048935422114978,1.1104444963154543,1.6689334546472094,1.5291899545030154,1.2693001064985567,0.3357408127299235,0.18171320938353727
0.14735348668902534,0.24137479903280296,1.112479232767736,1.6629491645020504,1.5265118909926965,1.2719177145115994,0.338450177657727,0.18223571150241732
0.14799643377137867,0.24220268423309815,1.1140201147502282,1.65749152545007,1.5233456304820039,1.2739424423681582,0.34104934920191465,0.1826932897309756
0.14859559275202203,0.24294128211006324,1.1150670578768522,1.6525362342191392,1.5193677754246808,1.275672223834483,0.3435874083065366,0.18313512533922188
0.14911885828037671,0.24361381755581424,1.1157876071487096,1.6480729305915043,1.515179055249314,1.2771449500192606,0.3460779322676979,0.18358153374190275
0.14960913895224415,0.244275999743829,1.1160882755320718,1.643870593096964,1.5119493473878247,1.2788450725210818,0.34861418570401903,0.18400514142677424
0.1501008246042356,0.2449209533398272,1.1156660934315608,1.6400690291867324,1.509680210492613,1.2816369281652125,0.3512452204229234,0.18439984430886835
0.1505666356733752,0.24550868864866102,1.1146598561278374,1.6368951872309008,1.5072757116330344,1.2853567176641005,0.35379054267441623,0.18479994719492038
0.15101393281718362,0.2460344387916411,1.11387148665147,1.6345722331864239,1.504135632705448,1.2893654752856576,0.35619793222781687,0.18528506059654173
0.15151663424152986,0.24656056342527222,1.113706807545087,1.633058747302745,1.500829847192688,1.2931720705936707,0.3585245465832192,0.18587776573981032
0.15203841718320077,0.24711996810652695,1.1135037088616193,1.631759394095498,1.4976763015093797,1.2967013823444007,0.360597814928277,0.18645915364373428
0.15247097341515017,0.2476304350876237,1.1128495270964738,1.6307129242674587,1.4943438126662953,1.300403325910063,0.36235988559941673,0.18692886550882773
0.15277096111768215,0.2479933088856175,1.1116708928746943,1.6300497637735878,1.4908567460889153,1.3041264203193053,0.3639295562029373,0.18727792898003395
0.15293716565856416,0.2481745373012494,1.1097710983812494,1.6294262838855087,1.4871583261561083,1.3075251683627338,0.3653136723215997,0.1875045640403313
0.1529685543481216,0.248208582827123,1.1072769200785895,1.6287210149854234,1.4831610187839566,1.310958053282095,0.36645878760801814,0.1876071862225131
0.15289101334625868,0.24811518053001438,1.1044639759751784,1.6280986551146968,1.4791156800620064,1.3144002195204723,0.3673273809449121,0.18759777154930316
0.15280964050994655,0.2479066449518504,1.1013220903622467,1.6269410944191454,1.4750283027725604,1.317319750176538,0.3678905146632554,0.18754805736124722
0.15279154045835305,0.2476082385519669,1.0977482439439272,1.624644228620319,1.4710383789420867,1.3195894474594652,0.36811411756635526,0.18752670246442443
0.1527671215218735,0.24723752678649416,1.0939184354147384,1.6214536778769202,1.4674463935549535,1.321215301628185,0.36800604258667224,0.1874790074519323
0.1526631363753449,0.24683143945007033,1.0900213201905162,1.6177122266606905,1.4637638187578597,1.3219897136838088,0.36759417947336165,0.18732593156511082
0.15246308520231958,0.24633841825320454,1.0860034120015676,1.613427369350783,1.4592158898895609,1.321895448891647,0.36687875546109816,0.1870521441918916
0.15217802176990966,0.24570922936920808,1.0816866323839838,1.6083126172897233,1.4535838505800043,1.3209770337145919,0.3658669669325974,0.1866765272422063
0.15183197347135002,0.24496376949515425,1.0768073266924574,1.602362170940039,1.4470272249241485,1.3192176817364683,0.3645994134339955,0.18623061230584922
0.15144129648055482,0.2440944391264547,1.0712141301384432,1.5957250665456815,1.439632637773954,1.3166222057502943,0.3631419209457574,0.1857580005021591
0.15101499332426352,0.2431007745482551,1.0649902673476175,1.5883238902211232,1.4314770726280042,1.3130890413608607,0.3615108365882087,0.18526699420952578
0.15054165184485643,0.2420025100962245,1.0582694428105717,1.5804931730692247,1.422935770177288,1.308555372837222,0.35968853491707525,0.18468532132446486
0.1500170871817717,0.2407918796922822,1.0510596833225523,1.572747216065488,1.4141674583123487,1.3030824272866695,0.35770514271222115,0.18398405368107962
0.14944403173996237,0.23947493513399565,1.0433691388992947,1.564815689952821,1.4048628555202802,1.2967497357859894,0.3556163768936308,0.18320249522776597
0.14880508813642618,0.23812442741104134,1.035339788636891,1.556299787107867,1.3949405888129585,1.2897077488092206,0.3534154612729867,0.18233820369860865
0.14813048030429488,0.23681666437979312,1.0271880002870635,1.5474738183050094,1.3846911451662258,1.2824754770175733,0.35115619599098513,0.18141566664967573
0.14749595486623648,0.2355510510748672,1.0189938241319325,1.5386205309922167,1.3745464808737244,1.2753890975854414,0.3489101574273145,0.18049847945507969
0.14689369662844834,0.23424674624327774,1.010606550244457,1.5295290231287395,1.3649397377013213,1.2681415581237931,0.34654522012145383,0.1795806091613913
0.1462560252774907,0.23284651691231495,1.0019824937326531,1.5202384820370938,1.3557097232812079,1.2604459911554142,0.3440153465385238,0.17860948396563142
0.1455784094139238,0.2313893132108576,0.9932071298166034,1.510920303339612,1.3463141010252784,1.2522356925294418,0.3414438078547275,0.1775682978270322
0.14487661098258076,0.22991244764350346,0.984242018180613,1.5011968988316273,1.3365953037072624,1.243494155431759,0.33882821138454666,0.17647447244366454
0.1441189286398332,0.22835802687482898,0.9750171424023732,1.4908345132520577,1.326683733472234,1.2341659875256823,0.336079393550877,0.17531129347976
0.14338875383871055,0.22668412018381084,0.9655125811805926,1.4799511500409093,1.3166842539149834,1.2241519682974327,0.3331857396101845,0.17410964157860345
0.1428794888099699,0.22490422199359622,0.9557095489389437,1.4684529230346972,1.3066437688816868,1.213712206707345,0.330176395107877,0.1729392082922911
0.142582025289973,0.22303802859148933,0.9456104224703414,1.4562038179501777,1.296366489188763,1.2031293491344424,0.32705260690638904,0.17185325458641637
0.14237378512542653,0.22113120746566245,0.9352244470952479,1.443188117330138,1.2855784451369794,1.192172450774443,0.3238357360346221,0.17086921557045323
0.1422109763150563,0.21918736506175465,0.9245808011632405,1.4297793121797506,1.274225330431871,1.1807011953974405,0.32054630511507476,0.1699100669379593
0.14213189748562663,0.21746405310172442,0.9138413628874787,1.4169835800276458,1.2622691161788242,1.1687824396042361,0.3171973290304751,0.16898902494947582
0.14218647401872347,0.21656177371819202,0.9030674649724928,1.4050674425123486,1.2498478431410727,1.1564070211910642,0.3138080005257999,0.16819892619565602
0.1426229113110222,0.21654600825926762,0.8920436839776066,1.3931951795037274,1.237421614075472,1.1436669063006455,0.3103833453492885,0.16757495887974042
0.1436916319112795,0.21687011479459914,0.8806578025770679,1.381169081710974,1.225196533754295,1.130596929023274,0.30692151900014203,0.1670570183076947
0.14502314366858773,0.21721814289615873,0.8690568958398776,1.3694286597694676,1.2129817708574755,1.117217356240546,0.30339404920260066,0.16651396385686162
0.1463306170358294,0.2177157501504524,0.8573952269947934,1.35788591648142,1.2006482645648693,1.1036347904084851,0.29978045031003675,0.16593403926021533
0.1478411567918714,0.21850973293470946,0.8456532653661185,1.3461756777635243,1.1881863384247162,1.089810992372096,0.2961614993710284,0.16543306785939918
0.14961133962972506,0.21941261051053948,0.8338124065270761,1.334162750894354,1.1755734885611542,1.0756561299706155,0.2926679559608188,0.16508164779031212
0.15144096670099305,0.22017139873660022,0.8219418674137081,1.3218183996693897,1.163242979623108,1.0613186028353108,0.2893445448015439,0.1648468755589795
0.15321871312332025,0.22077825473637805,0.8100744559321794,1.3094029526512105,1.1517159508549315,1.0469739678169374,0.28612690752519515,0.16473728064512938
0.1549116873675017,0.22135954221970672,0.7981813776708386,1.2970986345771705,1.1407680359489065,1.0325762090405248,0.28288652088243904,0.164841132467685
0.15648850909139472,0.22197598469163543,0.7861481968930568,1.284725288509905,1.1300703984142157,1.018134849232609,0.27962081590951104,0.1652894601909557
0.15800619116888706,0.22267226098874632,0.7739257596659387,1.2721440828830457,1.1193817956537215,1.0036189236661852,0.2764343349899175,0.1663610433093292
0.1599605989730938,0.22359132060735476,0.7615808920412878,1.2592291058689706,1.1084580879558392,0.9889253397203309,0.27355403412251306,0.16811468029349372
0.16302620638459134,0.22493654544258812,0.7491375185302506,1.2459672148064667,1.0972866084888653,0.9740893754011358,0.27122345485212307,0.1701178813167078
0.16724536846345478,0.22712270421160297,0.7366186190738263,1.2323796028601617,1.0859624553491845,0.959178342892135,0.26922037970043783,0.17214391674794682
0.17208249393467648,0.23049224180679295,0.72409304958376,1.218326393780919,1.0745098818747831,0.9442433298020997,0.2672517003097007,0.174310185454457
0.17713833096718967,0.23478321528302762,0.7115731925533544,1.2037745286436314,1.0628251782956328,0.9292864251328538,0.26541142595896816,0.17651489866141593
0.18235169239354876,0.2395970841937962,0.6990307711383933,1.1889001311416347,1.0508695393811296,0.9142695325159363,0.2638896459749552,0.17858042239447636
0.18790459228511455,0.24474601504317725,0.686458816949258,1.1738519248020585,1.0386997111621317,0.8992030707045481,0.26273416253221527,0.18078493530500686
0.19400423701888345,0.2500834431782113,0.6738774367455121,1.1586252469844818,1.0264704697939047,0.8841438552260894,0.2617897682382551,0.1834077651460214
0.2002532507783481,0.255669569749154,0.6613192445293771,1.1431489504310697,1.014243005384764,0.8691930272971645,0.26088105283355295,0.18611396138199335
0.20647864661125762,0.2615483677748394,0.648788670815341,1.1274153942605063,1.0019020124225755,0.8544204844511081,0.2599739133807746,0.18877025542734222
0.21292282094675688,0.26742063315136494,0.6362832409659749,1.1115378651784402,0.9894710248363129,0.8397859393422444,0.2590624712259612,0.19151665640243024
0.21931597877880124,0.2730001703920123,0.623820621470132,1.0955379484595689,0.9770662440990152,0.8253443254948423,0.25808093374652247,0.19420619207941683
0.22535998292871406,0.2782341401108346,0.6114510995360705,1.0794698392900886,0.9647453090607199,0.8110878293740417,0.2569731210520669,0.19675181963611457
0.23106417123147727,0.2831993658794802,0.5991892574243789,1.0635057907427212,0.9525231571264094,0.7968015336946362,0.25576564798409523,0.19913059133278663
0.23645117571290378,0.2880565096586369,0.5869620223423306,1.0476098913167002,0.9402869480788264,0.7824002366306692,0.25452418474154775,0.20126723010962516
0.2414560337110299,0.29286575261909287,0.5747663231026878,1.031714294528701,0.9278618993514935,0.7679228971154014,0.253244721011852,0.20319693920128812
0.24614400766914524,0.29773150860340913,0.5626660510763243,1.0158744491365557,0.9152815847226919,0.7534335983008019,0.25189002767219715,0.2050070794498474
0.2506513753916079,0.30273354159027405,0.5506687413879876,1.0000831668872199,0.9026384424643582,0.7390003360207432,0.25051148347384855,0.20670109930271205
0.2549682618771802,0.3076270919434097,0.5387748163558942,0.984233235705909,0.8899072932565854,0.7246011797565622,0.24913151364633887,0.20822892182411892
0.25911214896993273,0.31221825683839993,0.5269912660887188,0.9682555889529691,0.8770641369452321,0.7102218050362723,0.2477113966902219,0.20963641004877265
0.2631199836995757,0.3165023724504701,0.515304612508485,0.9521043425346515,0.8640593806537518,0.6958618626872464,0.24625424828441778,0.21106783945976473
0.2669670652763159,0.32050201788059524,0.5037018696973636,0.9357625177272079,0.8508992302773125,0.6815143139957567,0.2447497125551077,0.21254084556982597
0.2706633512835088,0.32427249543356895,0.49219727886385767,0.9193143469432506,0.8376499456360735,0.6672058439301347,0.24334170635144536,0.21394522424873794
0.2743656031592352,0.32787361138044674,0.4807909956781444,0.9028605626971115,0.8244017370120394,0.6529753120084658,0.24218785709476887,0.21521574241289018
0.2781435328564078,0.3313894803560266,0.46950981795236585,0.8864306659163834,0.8111874058080333,0.6388531278585968,0.24113114303522276,0.21645059390191942
0.28178293976656915,0.33479366871652017,0.4584126879536558,0.8700194226942589,0.7979513778881346,0.6248281592900196,0.24001458627892802,0.21776379770853632
0.28515929683684554,0.3379473381271596,0.44748226335298913,0.8537087259653409,0.784673944881571,0.6109431516540159,0.23894215464595392,0.21909719348143475
0.2882941474971357,0.3408249007831456,0.4366884226034854,0.837536697102281,0.7713028650741505,0.5972789733475738,0.23800656934301234,0.2204686743058878
0.29116153045909526,0.3434623209823606,0.42600890722110074,0.8213992619510098,0.7578016293028131,0.5838057900615153,0.2373097620459515,0.22193543465564877
0.2937168129770866,0.3458541162638748,0.4154156296656819,0.8052770670892807,0.7442290439738072,0.5704413919493883,0.23723650035804073,0.22340500056542767
0.2959710908267297,0.3479685357329608,0.40497524307921534,0.7893187342635205,0.7307016024539167,0.5571672102645812,0.23781324564222317,0.2247554841691708
0.29797538392770084,0.3497754760606928,0.3947914722215816,0.7736060948798206,0.7173306921530276,0.5440055118166073,0.23850974761360946,0.2258971531823092
0.2997720504517228,0.35129324062865175,0.3848362534810761,0.7580700960596882,0.7041291055147759,0.5310242888649284,0.2390326336304163,0.2268312937565072
0.3014419240151872,0.3525864182805073,0.375022348547592,0.7426779449443871,0.6910019403327178,0.5182884047378077,0.23949591885695987,0.22761282414063208
0.30299558837176804,0.35365014834913405,0.3653196613709419,0.7274115067647666,0.67783828878979,0.5057727497788677,0.23999534941016365,0.22824762169475007
0.30431624640793736,0.35440645741553783,0.3557260402075627,0.7122466275001079,0.6646123293898973,0.49344640693372605,0.24042858306651285,0.2287481359857974
0.3054394925272386,0.3549014044688148,0.3462526934327684,0.6972202783132813,0.6513529105316512,0.48130636373732916,0.24072453274472408,0.2291932647516736
0.3066001435442573,0.35529296049254216,0.3369169121839861,0.6823208883153782,0.6380876592712934,0.4693228149582758,0.240982481939258,0.22966521654999333
0.3078422551241695,0.3556654719081265,0.32774178933278836,0.6674770932874808,0.6249031813128882,0.45746709950556697,0.24158493236419565,0.23020248583590208
0.3090875426153298,0.35598597691749134,0.31872920125158327,0.6526473203804377,0.6118956127218291,0.4457651660120844,0.24271022430538147,0.23084851713132834
0.31056867415376405,0.35616950869682834,0.3098674139472929,0.6378987650771332,0.5990297079200931,0.4342550589201454,0.24418077364984828,0.23182528277813308
0.3125079792813339,0.3562419002733425,0.30117848752523413,0.6233357401062656,0.5862381864348228,0.42291949657116445,0.24610050423323485,0.23340496330067367
0.314716526329348,0.35623465531877174,0.29269004250764336,0.6089374988565446,0.5735569090549812,0.4117284078837994,0.24858176199582327,0.2354461719338559
0.31702001992307627,0.3561579274926585,0.28441493367011345,0.5946372355209482,0.5610066998495459,0.40069300480011355,0.25137042709388413,0.2375792120905718
0.31946559779178013,0.3561819591945884,0.27635187929619065,0.5804311264230942,0.5485204340081733,0.38983054768201697,0.25414958052005954,0.23961082708019618
0.32192437725124057,0.35628897667655146,0.2684860767347617,0.5663689107827687,0.5360806436637685,0.37913732198881916,0.2570038699252111,0.2416036366602564
0.32415271646495447,0.356227890059734,0.26080317616946913,0.5525849448200639,0.5237374347108416,0.3686029252638233,0.2602147705698552,0.24368443636943576
0.3261584781994515,0.3560528651844776,0.25329596074815436,0.5391473039080943,0.511505212612046,0.3583643447548088,0.2637035119335999,0.24575379024283492
0.3280095720059945,0.35598965885073003,0.2459640435778687,0.525953621906177,0.4993709058542847,0.34864593251374765,0.2671470980324211,0.2476764787623662
0.3296240146672471,0.3559398694994334,0.23884031511005627,0.5130060349151639,0.4873419742957826,0.33937429285976184,0.2703435879611073,0.24939015969055225
0.33093698603495747,0.3557090694760981,0.23196940741344435,0.5004200098402497,0.47542545188372054,0.3303183253885199,0.27324714597052385,0.25084877364613833
0.33201380698625654,0.3552919757534499,0.2253269093873711,0.4882254153047446,0.46362795837193677,0.32141054119722007,0.2758342688341903,0.2520887405198676
0.3329439315978474,0.3547438883271415,0.2188491345080289,0.47633009687558336,0.45194902497515166,0.312733332132338,0.27809615209567246,0.2531517945718818
0.33369940700663164,0.3541245164785332,0.21251512052897178,0.464645615880569,0.4403747169092541,0.3043519150797536,0.28006480363079667,0.25401116770140575
0.33422023392010963,0.35347767165541116,0.20636485094124365,0.4532476362164393,0.42893171966040716,0.29617461032560916,0.28191152850434853,0.2546681955084257
0.3345695941072044,0.3528319160362281,0.20040965049030163,0.4421480835191,0.417685548014308,0.28820044256583227,0.28380030520521543,0.2551577806748855
0.33482814709206904,0.35220119763232366,0.19459330392154645,0.4312377298933616,0.40669199374822745,0.28057537375486036,0.2856205075558744,0.2554532972083739
0.3350731349010423,0.351652331441432,0.1889087065131181,0.420525572647613,0.39599080833966266,0.2733785122571565,0.28736667230209256,0.255529463545102
0.3353583981398566,0.35125583585818737,0.1833957367718542,0.41003339866262956,0.38564647736614766,0.2665848259594938,0.28915399225577154,0.2554024242585839
0.3357822004951213,0.3509252407576228,0.17804557285672246,0.3997082901660519,0.37568022385404093,0.26006969200015073,0.29085192029077234,0.25512124829131316
0.3365520629446789,0.35059782792821714,0.1728563050669756,0.38953958343115425,0.36599163637072785,0.25371363424428867,0.29239584226859794,0.2547330210390756
0.33748505488242797,0.35026708922221733,0.16787275303451096,0.37953029904993674,0.35651782869718157,0.24749581833073764,0.29385781970957564,0.25422939745749246
0.3382856905281414,0.34985994298151685,0.16309747436449576,0.36969654434675564,0.34725861364935345,0.24147641326912642,0.2954740105711386,0.25361587846321615
0.33896563459117424,0.3492864993123501,0.15846585490188808,0.36011373080546877,0.3381534314147331,0.23565929415896023,0.2976640540411108,0.2529780634700334
0.3394559299457822,0.3486615137791568,0.15395606541634008,0.35083369267398123,0.3291776349494844,0.22996774095824832,0.3004677577891182,0.25242459932873124
0.3396774272748221,0.3481616643932763,0.1496072812638338,0.3418188019601297,0.32035432504499023,0.22439510591153783,0.3034612763039761,0.2519657267040089
0.3397084532521563,0.3476282188251681,0.14543676208059794,0.3330127520006016,0.3117054514011252,0.2189349153424969,0.30622562767980677,0.25149080274224567
0.3395706270171481,0.34686257342470844,0.1414742172673619,0.3244015971151058,0.3032518414574258,0.21356749643070805,0.30866781256088627,0.25094749585116044
0.3391845019247113,0.3458421281539847,0.13774117842339684,0.3159985533091659,0.29501322905483457,0.2083742310112593,0.31093987838198855,0.25036604604616874
0.3385278111387322,0.3446190565782537,0.13430482156947493,0.30784949112204935,0.28700828290771,0.20343279622980165,0.3130670822198665,0.249695184597605
0.3376396902591485,0.343323692063951,0.13130934852568574,0.3000782739747217,0.2792011472337005,0.19869021741365098,0.3148998886188102,0.2488592132309623
0.3365511116734512,0.34200722846720477,0.1287318060865114,0.2928030178539804,0.2715974491624098,0.19411568785432393,0.3163624041476385,0.247872800047413
0.3353253251228912,0.3405849362342907,0.12638268616940268,0.28590221864629334,0.26425586251621114,0.1897865526151096,0.31750273809148366,0.2467701788307903
0.3340363361213284,0.3389624981088861,0.12415404098457228,0.2791790593961948,0.2571720847297111,0.18574312894392306,0.31841402180759837,0.24554409215711484
0.33266139183497784,0.3371836078268568,0.12210964629926083,0.27259219558064657,0.25031500749660546,0.1819568466715736,0.31913875896121396,0.24421446099797212
0.331125323535744,0.3353303271243927,0.12036381617139474,0.2661821792227708,0.24366802740658175,0.17831989748003227,0.31965092672189094,0.24282049846079112
0.32939650033191886,0.33334750437263644,0.11903229469933412,0.2600812327269465,0.23718162996638595,0.17474907169528625,0.31992583833791344,0.24135965997849101
0.3275250834363576,0.3312025675567732,0.11811842091356778,0.2544690218439025,0.23083504118487735,0.17129174492065669,0.31994010890870406,0.23980283230939956
0.32554581999684445,0.32890463235765544,0.11739097713533084,0.24936984187714575,0.22474197393875242,0.16798643845972386,0.319718423066803,0.23814900385430746
0.32340513389294273,0.32643582221575734,0.11665535738640527,0.24457242865192702,0.21906444243544548,0.16480299331447612,0.3193180503129597,0.23641067253074746
0.3210987347477341,0.3238126321606858,0.11593937097492994,0.2398677214671368,0.21378318435956875,0.16185284847379316,0.31873377034948136,0.2345798168623984
0.31866279433854494,0.32107104731509595,0.11532308739717774,0.23520274612054226,0.20871892898895522,0.15951649908118656,0.31792733751357305,0.23265553923730536
0.31612535165992545,0.3182589752314181,0.1147559672380125,0.2305936516568736,0.20376684608711515,0.15809713919247895,0.316889126449338,0.23064375719751218
0.313520011182918,0.31541562367277276,0.11416956201289259,0.22610931902648118,0.19891347006274895,0.15758971988728937,0.3156970712544335,0.2285702734728055
0.3108321809237787,0.3125116672339312,0.1135719618708575,0.2218088294631201,0.19415919710274615,0.1578347542869738,0.3144526116404304,0.22646651502438428
0.3080814124220754,0.3095124274399611,0.11297091620079092,0.21770171757957382,0.18950431049948502,0.15850512497246896,0.31313248254049364,0.2243224566167001
0.3053399559753645,0.30645837030054857,0.11238721286635371,0.21379023100145172,0.18498910100818178,0.15924071753103303,0.31164764341467033,0.22211517567283318
0.3026234255255456,0.3034016281523117,0.11181397580758075,0.21019667799167494,0.18080575059195322,0.15995107008828616,0.3099799416559853,0.21985623655483086
0.2998798728840996,0.30031852494879524,0.11121787385169206,0.2071781498381936,0.17722468670747873,0.16065665154425396,0.3081589917242432,0.21755006499860863
0.2970796912904288,0.2971530091966701,0.11070076543363143,0.20477274585848104,0.17425662325582073,0.16129012849813154,0.3061865252784569,0.21520762596792078
0.29424141693555617,0.29390503239164983,0.11038006419445764,0.20270207793666564,0.17168389429755887,0.16186070871905087,0.3040710309597773,0.21285950080587687
0.29133601559290745,0.2906214294271655,0.11052835469093937,0.20101377235939805,0.1693781426342579,0.16244412010458148,0.3018341385167943,0.21048145975928556
0.28832909360932946,0.28734703431915265,0.11145272485458518,0.2000538845400822,0.16737679414935322,0.1630392418130144,0.2994699111343104,0.2080369829845362
0.285241337598247,0.2840444924227101,0.1128243747135359,0.19965796774854075,0.16574209826971567,0.16364499040473107,0.29697279292304907,0.20555806133706137
0.2820859272948711,0.28065804169996333,0.11425481541827107,0.19958794557711723,0.16438615432010084,0.1643338647584314,0.2943576555923065,0.20306864276751332
0.2788421052367541,0.2772012838762608,0.11572673922725552,0.19979629367499088,0.1631376949443561,0.16515507510303576,0.2916254666132089,0.20054484299174824
0.2755034732686494,0.27368061151884965,0.11715669093902978,0.20003001959767827,0.16194645288692583,0.166035218235274,0.2887572065576078,0.19798390670409596
0.27208406067096774,0.27008214324047636,0.11844482466731306,0.2001206460171269,0.16083783557829642,0.16684385030207205,0.28574818578800903,0.1953899201414184
0.26858399314342635,0.26640604790323014,0.11958268778105585,0.20008767592590465,0.1597892648874986,0.16756992632046622,0.28262079817339036,0.19277350982982333
0.2650101547446281,0.2626793057916267,0.12063588554176229,0.19999668579178484,0.15877239992080294,0.1682765064800366,0.2793965787031517,0.1901381762002164
0.2613892594608026,0.258934459576584,0.12168062589475603,0.19988371456841383,0.15775341481152752,0.16891695416205516,0.2760761621577709,0.18745385606617712
0.2577335339086824,0.25518259736010757,0.12272963964601998,0.1997431405854801,0.15669995568765743,0.16945340920461618,0.2726669345587834,0.18471858378676334
0.25403464914515517,0.25145439003199166,0.1237750423793859,0.1996297867058028,0.15558110793996777,0.16990993069481936,0.26916936074564407,0.18195727214818638
0.2502913657939646,0.2477791528006366,0.12480260983848751,0.19960943902115685,0.15438742138547162,0.17026280769202304,0.2655906566043721,0.17917371859546632
0.24651591310988327,0.24412470221671034,0.12589235647769248,0.1996179018813317,0.15315004448835318,0.17048277375389248,0.2619511746795547,0.17636489106962797
0.24275344973739515,0.24045354738293948,0.1271274455414694,0.19956699771173655,0.15187207047871956,0.17061550806270007,0.2582503838836552,0.17354128558253018
0.23902041553539002,0.23677664442451202,0.12841345117882816,0.19951952911725362,0.1505498114060467,0.1707114749222334,0.25450120730634174,0.17070627034097885
0.2352723339476413,0.23311116485728817,0.12968674559898144,0.19961579766536147,0.14920652615556393,0.17076549350663728,0.2507093672065572,0.16785639224314045
0.23150010550355266,0.22946015104933484,0.13098676762504383,0.19985615008129828,0.1478778550745829,0.17079939244466352,0.2468870643179626,0.16501510641201067
0.2277284792450393,0.22581312728453087,0.13228435686862755,0.20010037388207422,0.14673828063994782,0.17084744310563627,0.24307942835579346,0.16219815444774274
0.22395438431369352,0.22216006923073137,0.1334713910435732,0.20027451955344625,0.14604812375882742,0.17098252961345173,0.23929618393307509,0.15938714061490108
0.22016151377438034,0.21849807995627796,0.13449804082778913,0.20038146430674073,0.14578852069906872,0.17123416906351455,0.2355131797477038,0.15657114881033785
0.21636771722878909,0.21481102513374534,0.13539702858895855,0.2004641409233259,0.14570031745550577,0.17147670637702134,0.231700627838294,0.15375311401881875
0.2125967554486888,0.21110355363588215,0.13620646390465208,0.2006171275462313,0.1456758614647106,0.171610013632888,0.22783674919933344,0.1509425316079805
0.20883121887968567,0.20739350393180622,0.13692945693675734,0.20084390701639943,0.1457124061161441,0.17162533695989424,0.22393419058422556,0.14814847711689405
0.20504107737662852,0.2036845698771546,0.1375423223288907,0.20104076431470602,0.1457738354939109,0.1715478465745592,0.22002514437045068,0.14536624383012697
0.20122437336514176,0.19999365563738036,0.13808936986583623,0.20128235519116353,0.14589912461801804,0.1713950225399032,0.21612703832819213,0.14258463220203174
0.19739931784667689,0.19633022743392786,0.1386932787847152,0.2018673703848723,0.146098749328305,0.1711636001670706,0.2122498463646321,0.13980630068615746
0.1935699665940726,0.19267656976846628,0.13946465628385396,0.2029474699963869,0.14632917082370173,0.17088396229098574,0.2083964028122622,0.13704047499684158
0.1897402032784484,0.18902241351440482,0.14039548007869598,0.20431288999377561,0.14654871260703073,0.17058521796926204,0.20454933804389414,0.1342825959509276
0.18592711510696558,0.18537799414743003,0.14133083157726467,0.205729276689382,0.1467175197921255,0.1702484280539289,0.2006987170483134,0.13153498077276474
0.18213365873250603,0.18175309294674263,0.14220275145856048,0.2071328742395935,0.14687774987040167,0.16984882719920466,0.1968417259408221,0.1288198939419766
0.17835595741529525,0.17815036133542123,0.14308001398589834,0.20859642882536353,0.14714996805407857,0.16937615881842957,0.19296899331359782,0.12615860100171386
0.17459697362805873,0.17459237197455596,0.14398828386310575,0.21030312868184414,0.14764939211714118,0.16880731067223625,0.18908494211147062,0.12353796166751155
0.17085952303476803,0.17108730149629686,0.14487184911498177,0.2122273879913894,0.14839909613605318,0.16814032561206935,0.18520718591000096,0.12093868148074931
0.1671529641062103,0.16759611843760322,0.14572424433369577,0.214150630091949,0.14938748007269412,0.16741354200965253,0.1813525667860905,0.11836902764472775
0.16349959071279732,0.16413496172506,0.14659948875425344,0.2159640671538296,0.1506901349576043,0.16667706183199274,0.17753048663038173,0.11584356545227993
0.15991399061391073,0.1607660416373307,0.14742219894611017,0.2177843813629968,0.1523656915962095,0.16595207534365644,0.17372984948518375,0.11337618457794967
0.15641673816189486,0.1575086602496391,0.14812031808391066,0.21979672318274454,0.15426260832334604,0.16524546895350473,0.16997345065119826,0.11098680098242865
0.15302074237522192,0.15436111529405133,0.14872533026389845,0.22226492913141727,0.1561220539879688,0.16459724183829996,0.1662964240281887,0.10868770389643712
0.14969145185801733,0.1513083005285824,0.14928749915050787,0.2255947071998721,0.1578636303188037,0.16399879691716054,0.16267212650969537,0.10645713156932093
0.14641581015379573,0.14832898876288642,0.14982820167999852,0.22969191430993122,0.15963118313996383,0.16342180478276583,0.1590883938024154,0.10427420177981947
0.1432080202137421,0.1453894323915217,0.15030773296266675,0.23397099698497978,0.16154891027796317,0.16289263404154636,0.15555360892820833,0.1021456375919837
0.14006154441201635,0.1424573119746088,0.15070823045671056,0.2382460855925629,0.16364854999078546,0.16239634552386836,0.15208911526590388,0.10007781742369863
0.13697675598321823,0.1395618789646673,0.15101268416280306,0.24272717690752127,0.16596697163756904,0.16188518774507304,0.1487152608278769,0.0980700979116383
0.13396063834146615,0.1367444501425725,0.15123165981437953,0.24740767855595475,0.16847905756335274,0.16134024249636852,0.14540462019129188,0.0961084337190428
0.13099974726767746,0.13400435578086883,0.15140209033713253,0.2520002820522567,0.17111379298459542,0.1607568182127001,0.14214427062075768,0.0941592875419429
0.12807448350723047,0.13134088059450638,0.15153929269237823,0.256397397994992,0.1737697009781752,0.16013046435623504,0.138928488356782,0.0922039393072441
0.12518612298358917,0.12873989450287887,0.1517114379354417,0.2606300202362162,0.1763162642234759,0.1594502792847709,0.1357651272548156,0.09025123225167446
0.12234253649969916,0.1261878211374997,0.15195695710650708,0.2647212686031522,0.17878251971349732,0.1587125730261436,0.13268839307791833,0.08831630872166109
0.11955789555001335,0.12379197406143476,0.15250643300640002,0.26880036997410617,0.18147713020637737,0.15794061531042894,0.129690805774807,0.08642032181821203
0.11683901292564021,0.12165485255832413,0.15382082905355052,0.2728037405134494,0.1846282651079533,0.157176755580816,0.12674507607603527,0.08459015376965133
0.11418565591922152,0.11968704517069069,0.15589906543580073,0.27710521963798707,0.18829327477588595,0.15643475129472276,0.12385848030899385,0.0828380831492982
0.11162428249178157,0.11776943270157703,0.15827804099055415,0.28238303907203094,0.19260675266858043,0.155721055006866,0.12106466532517791,0.0811423497800093
0.10913999630948554,0.1159016851968543,0.16071506750900813,0.2883623528164112,0.1975229824451106,0.1550150677215117,0.11837566837125862,0.07946871280362716
0.10669841609314917,0.11415029844099446,0.1633323026448462,0.2947795814206091,0.2030845699140479,0.15426364838627352,0.11578284454186713,0.07781782778186995
0.10436021677572153,0.11258545217141491,0.16627985132003925,0.3021310037133437,0.20927147275318428,0.1534962405750123,0.1133112615291477,0.07625047340989724
0.10216996486468623,0.11120723673777509,0.169440224340214,0.31056950436665676,0.21565607270101822,0.1527610816504066,0.11097809467108795,0.07481133461242788
0.10006317207086134,0.10992864097942247,0.17250025406676148,0.3196519107772778,0.22196954838664784,0.15206416589758645,0.10873946570936206,0.07345611328379699
0.09799812981700291,0.10869308256098816,0.1753075698415176,0.32889351375671594,0.22814872176376486,0.15149142164048449,0.10653993999483533,0.0721423553341875
0.09599507530711349,0.10747982622829151,0.17789050126189326,0.3380244067718457,0.2344542157309435,0.15106474960703123,0.10437325579174228,0.07098318848752841
0.0940799924196451,0.10626233031967951,0.18027636345392747,0.3471743046589672,0.2416834537591798,0.15075815609761337,0.10229356535725263,0.07032068350000689
0.09223753521336443,0.10503526853200854,0.18247810287818234,0.3563736636184733,0.25036430601613313,0.1506469503872566,0.1003258398870183,0.07032110359555975
0.09041283878489387,0.10382029907551285,0.18457514068987524,0.3659123207964014,0.25985700377300125,0.15067594732356282,0.09841362587556715,0.07069488787010189
0.0886336367606861,0.10269161493302151,0.18678395281257987,0.37652852134722775,0.26914763926409413,0.15070530713737507,0.09651624139474109,0.07115132630428328
0.08699327318525552,0.10170672972184601,0.18927807024041746,0.38789106581334837,0.2784299165270115,0.1507617295309236,0.09468836144447501,0.0716730144817295
0.08548729831642993,0.10082691554221723,0.1920092569717883,0.39968242690049777,0.28818999793989025,0.15101113284539022,0.09301564771875478,0.07239033231473788
0.08406452435873651,0.09998159625640497,0.19481079711448737,0.41244757806454013,0.29810351517277667,0.151698956313967,0.09151303002474331,0.0733943752452855
0.08272939525808917,0.099150031082546,0.19754989553090171,0.4259513572679886,0.3082745767752819,0.1531264095578945,0.09012776561675906,0.07459148246565503
0.08146601936489851,0.09835916895719983,0.20019319151340748,0.43930619919234054,0.31926384931554813,0.1554338076791303,0.08882934832026311,0.07584507525221967
0.08026581230324169,0.09765480628145955,0.20276904016652442,0.45193737675407236,0.3308780759217142,0.15890160966172334,0.08776903456347283,0.07721834822753992
0.07918736129858538,0.09705392198691856,0.20532468736470563,0.4638307133790807,0.3424236620867717,0.16381033838578626,0.08707121999012082,0.07883180785193332
0.07827321813497978,0.09649911176585789,0.20791203130776115,0.4758224770698009,0.35378546887882584,0.16963799252647813,0.08659379228512161,0.08065340094192296
0.07748369537390662,0.09595547927158089,0.21050045283961802,0.4885988384503161,0.36502068716153363,0.1758977397618229,0.086314263263129,0.08263220842552596
0.07674728016324245,0.09543643551195372,0.213087406176391,0.5022002844317616,0.37581641722904013,0.18259150334454177,0.0865251707789121,0.08489320701372426
0.07604231774356211,0.09490129732973285,0.215757374985935,0.517253109911177,0.38614790526409914,0.1894666376772663,0.08728523009562347,0.08748881041016328
0.0753681218884429,0.09433122290868928,0.21846405831161003,0.5343549920976552,0.3964465662372687,0.1964885656880398,0.08821548773650276,0.09030168271841206
0.07475743625990887,0.09374833868223402,0.22109627227915393,0.5528654994124106,0.4071317850571668,0.20384470766418114,0.08910707077937263,0.09332635253575822
0.07423483433159855,0.09316045000909015,0.22373494326818208,0.5716291088550958,0.41808953004006283,0.2113329172478569,0.0900744603339967,0.09649052220810517
0.07378362094026888,0.09260177170384067,0.2265978796985789,0.5907771693695145,0.4290633708021523,0.2190405151899885,0.09118697367077959,0.09961123997292776
0.07342118728273832,0.09206488780540215,0.22971268756118904,0.6108494799512817,0.44044985653980345,0.22732493991717626,0.0923770565957498,0.10263389360332824
0.07311059545402285,0.0915092538112613,0.23288489353940992,0.6309373813789086,0.4523805251934714,0.23613975466626608,0.0935599578209193,0.10567348764729462
0.072783032913984,0.09099639454811621,0.23594847786021148,0.6504591823962401,0.4644123670721197,0.24548683026639412,0.09467467383359457,0.10879989689821705
0.07242618147978576,0.09060517776605444,0.2388851452638485,0.6697549342997613,0.4764892538588296,0.2553406985668695,0.09567628984622555,0.11187261125482564
0.07202828654808882,0.09033069502491001,0.24187809668983387,0.6884882197824665,0.4891324449354553,0.2657366824804835,0.09659549758922707,0.11475727850725922
0.07164500349372602,0.09012802276314283,0.245062401774888,0.7065717924171842,0.502605992541801,0.27718274928235453,0.09748847841975455,0.11750608720814283
0.07134961286915702,0.0899608062577442,0.248292951666215,0.7243707833697126,0.5163125563454691,0.2897893646372285,0.0983688818552741,0.12026937846241273
0.07107840678601741,0.08982098021461786,0.2515779897530451,0.7417466566406737,0.5302488353688243,0.3032465441856259,0.09935675166439598,0.12313077253403024
0.0707704225179167,0.08967405956737355,0.25518610080399384,0.7589684622377111,0.5451402193089881,0.317370614403673,0.10080750555217803,0.12604312801695194
0.07044092755700794,0.08950043660149895,0.25916662139626256,0.776180045766348,0.5611314047610103,0.332306165502129,0.10300718155871018,0.12888775740174027
0.07009117478527796,0.08932818314006571,0.2633056323714921,0.7929306477349457,0.5776443414562062,0.3482709523495054,0.10578070559825288,0.13159131201185786
0.06973575410498233,0.0892242655106213,0.2675387627361598,0.8092107571615619,0.5943596037428962,0.36475019027921185,0.10871936329829268,0.13415062637472508
0.06941537068344814,0.08927273181886938,0.2721787613893092,0.8256067805259877,0.6112255179589065,0.3813111421912645,0.11169948025008528,0.1366096135113326
0.06912881123997629,0.08944016941141125,0.27741073228682056,0.8423318597152867,0.6278047252042136,0.3980546157286022,0.11483003889466395,0.1390036890496164
0.06883476683882415,0.08962764322528985,0.28298994882462813,0.8589276471109812,0.6438997858727028,0.41484285319656716,0.1181349090052556,0.1413066186652309
0.06853384662984215,0.08984747347427331,0.28851483522000654,0.875323565497919,0.6592688201371226,0.43167107325547793,0.12157658118859739,0.1434867101225436
0.06828012756278061,0.09021170305503455,0.29386875731543144,0.89151247123532,0.6738884248889014,0.4490026805345986,0.12513241590637106,0.14554051082294978
0.06809186126155287,0.09075382098794862,0.2993347857947296,0.9069929703695516,0.6880645493120017,0.4667723232984631,0.1287204736474121,0.14747821203904415
0.067926269423826,0.09139871397751555,0.3049896892287589,0.921580323588577,0.7018362090581326,0.48433538885184463,0.13222222885631738,0.1493029883006826
0.0677758406149882,0.09213460724044718,0.3106125357794349,0.935432979654304,0.7152946024202197,0.5015167494080044,0.13559793547774313,0.15103135711445267
0.0676467470891129,0.09295014982728919,0.3161658602507406,0.9483822852322571,0.7283534321796086,0.5182562313680947,0.1388765559071018,0.15268589722621734
0.06751144250822497,0.09380097739205383,0.32190807464784393,0.9603346477105287,0.7408703634433557,0.5349580334982333,0.1421260033959751,0.15426821960702175
0.06739038527231479,0.09471816493032295,0.3283603030989919,0.9719035293381975,0.7533516214360005,0.5521158012159938,0.14533103665058875,0.1558401085299477
0.06730313097962219,0.0957180010580078,0.33563923873421,0.9840371453005162,0.7662814671352346,0.5689510142932176,0.14844368981614614,0.15748741724013698
0.06721486514623982,0.09677587103084827,0.34302664718211107,0.9967126119958025,0.779213394470535,0.5850669651500834,0.15148503018608378,0.15921864980775155
0.06713240289918242,0.09786148778875377,0.3500560376596935,1.0093392110349453,0.7916868691032081,0.6009807979168861,0.154395046944935,0.16102180186176498
0.06714248905184698,0.09902608509790266,0.35696350432461244,1.0218266444011326,0.8036963994500116,0.6165120973047907,0.15714320772779,0.16290537912574082
0.06734806731981821,0.10034533785925327,0.3640886604805594,1.0345901190138258,0.8153642136090804,0.6318496990455102,0.15992109974246452,0.1649242417293735
0.06771370004521322,0.10172433425719411,0.3713148779467624,1.048066647650938,0.8266136653297521,0.647836329227178,0.16297881535893677,0.16717085089832026
0.0681518474049481,0.10309897313258616,0.37814271386575055,1.0615837531879546,0.8370308593664788,0.6641007376353791,0.16626781267218912,0.16961976873806528
0.06867230708458473,0.1045082324460813,0.384455855466221,1.0741371011855905,0.8467555666626777,0.6802674811855224,0.1695475432720076,0.17214617816317868
0.06927768557685389,0.10594256121662608,0.39043772338918686,1.0854756434726165,0.8563567398016173,0.6971542543878422,0.1729355906596622,0.17465735518327005
0.06995702221390981,0.1073927993107281,0.3961103103672172,1.0958886047031942,0.8658639075742477,0.7151881670430534,0.17681844813674757,0.17714485140732453
0.07066633146563989,0.10883011143874768,0.401588555358628,1.105673592343242,0.8750513400575048,0.7341013794716219,0.18123103801210308,0.17959392248849285
0.07139025413128934,0.11021355595762543,0.4070427637092733,1.1149286804847447,0.883703425404904,0.7534162059271605,0.18581178228203793,0.18193701427889677
0.07224780343907901,0.11162436957793452,0.4124820861813165,1.1239353995804324,0.8921225708266234,0.7723076039189158,0.19040854612141897,0.1842700735012819
0.0733192619611632,0.1131937199715123,0.418109182920008,1.1326423597901225,0.9013404078260094,0.7901739997787267,0.19508305503790732,0.1867116308889565
0.0745742417022537,0.11495331833024963,0.42413109782998404,1.1404123299204785,0.911640940723105,0.8067752492997619,0.19981404566788558,0.18918106884708089
0.07599686994787794,0.11689319839708326,0.4301905620832052,1.1472384109802172,0.922779968311384,0.8223107665428682,0.20459449605414315,0.19156113048331447
0.07751831426628444,0.1189367934199054,0.436046085502074,1.1539774031322176,0.9344629183705181,0.8373868578204559,0.20925717873819727,0.19378654242491195
0.07905258016709435,0.12102413573427351,0.4419549437287104,1.1608472213600591,0.946561271528767,0.8523566027072198,0.21373585040732812,0.19584850477750126
0.08067786068537863,0.1232582843142286,0.44802277562330806,1.1672471841075407,0.9593127338724204,0.8671433107513119,0.2182815639353466,0.19783236121594489
0.08246886300557553,0.12573767783761472,0.454263558486762,1.1730310679112417,0.9724827202839414,0.8818877514289969,0.2229538768746171,0.19983987996147395
0.08433642491924594,0.1283824056231352,0.4608576440983551,1.178962202236342,0.9860871301434784,0.897152518764361,0.22751545441921317,0.20184135078937637
0.08624867259948013,0.13106906831521464,0.4679705197667016,1.1861383303728403,1.000241041806625,0.9124991068662429,0.2319399609936147,0.20387521995240343
0.08825530564718358,0.13373976214241926,0.4754390546727457,1.1946254545018287,1.0144856961354807,0.926839391290121,0.2364162883355032,0.20615875245389664
0.09027673964952443,0.13631237121867837,0.4829062850724271,1.2034691778792583,1.028335380692377,0.940243373389378,0.24087100335495268,0.2091937127072808
0.09223014839613732,0.1387418725777234,0.49005081867547345,1.2118431514647894,1.041352615451153,0.9534341399622932,0.2451870832804519,0.2135395662835041
0.09409654426059602,0.1410923132135607,0.49693995469422697,1.2192850015758445,1.0533470577772772,0.9663213043243638,0.2493463279212702,0.21892120040128768
0.09583110493771695,0.14345846297211495,0.5039391822712804,1.226463215883963,1.0644786077295438,0.9784442873405379,0.2532779917813544,0.22451952349531987
0.09743119893824126,0.14583735482604518,0.5108631251168475,1.2344587595412913,1.0746670413705253,0.9900251721803244,0.2570750863180138,0.22995198675763057
0.09892118276333489,0.1481993945658507,0.5175144775333284,1.2434089159938906,1.0836961264817524,1.0013571459061161,0.26079996715409687,0.23543450368268956
0.10028434504964963,0.15056309198622753,0.5242530194118923,1.2535711143649872,1.0921022876891076,1.012647349560686,0.2644120605718813,0.2410665813683695
0.10159174049023648,0.15298626663873008,0.5312289190863085,1.26454188915336,1.1009274303471344,1.0241608224664314,0.26816684690967857,0.24656215892227756
0.10293144770418589,0.15545730848685482,0.5380707715036923,1.2747377415642482,1.1104924965657526,1.0358700606849167,0.2722483929213595,0.2517814574717643
0.10427402532220593,0.15785140459041386,0.5443833251984868,1.284209247246778,1.1201677335614597,1.047447698562313,0.276498153323534,0.2567047003703012
0.10559130861748062,0.16016290142739378,0.5502035450418107,1.2938278556886784,1.129310533203706,1.0588414758159268,0.2807776821359631,0.26132662812284
0.10685638121872819,0.1623998428096741,0.5556809260847693,1.3031566730809772,1.1379285205185061,1.0705698868108318,0.2849612069463549,0.26567593046392374
0.10807029066387783,0.16452319329416365,0.5607983349626773,1.3117981290505984,1.146243446381733,1.0823998019839263,0.28892182768064584,0.26975356976357073
0.109260832180054,0.1665291532101024,0.5657871106974064,1.3203153133092358,1.154099990299989,1.0935598764901293,0.29257180384582926,0.2735741007523598
0.11044792972209937,0.16838745752297646,0.5710157543457378,1.3294742881772517,1.1618380986285808,1.1036137999204143,0.29586762346052625,0.2771115781625895
0.11169744642698128,0.1701227865906251,0.5765356537496376,1.3394121561962227,1.170538572064407,1.112305753129796,0.29886161068767764,0.28041500297826893
0.11303889322943747,0.1717722388863163,0.5819744673244107,1.3499584420271666,1.1807395539708254,1.119626357223228,0.30166428086168945,0.28357827442265543
0.11446029414996617,0.1733713836286067,0.586895880915171,1.3607622844579443,1.191897972579029,1.1257551715440923,0.3043748454771084,0.2865977431550943
0.1159768602670849,0.175027838392912,0.5913042556038902,1.3719290937338486,1.2032527373294102,1.1314200372378707,0.30706823572128594,0.28950348702492656
0.1175295042702433,0.1767843151740038,0.5954248947490587,1.3836128365702838,1.2152590561838967,1.1375649943659363,0.30990306053229966,0.2922508411072476
0.11903492791869576,0.17859465589163318,0.5995137043687151,1.395238206741244,1.2287261398381666,1.144377197888218,0.31284369302479875,0.294717002916073
0.12046030007424637,0.18042134227796885,0.6038355583380063,1.4064421617853273,1.2433769285901766,1.1515803806324898,0.3156085720729605,0.2969586127909408
0.12189464077847807,0.18236218977336088,0.6084029007486101,1.4168778425811905,1.2580693999491925,1.159137225957565,0.31831632718146835,0.29917715747222406
0.12360361369260028,0.18470454557367622,0.6131404805104207,1.4262810644908908,1.2717178052355171,1.1672390198685567,0.3215017029135221,0.301638935590894
0.12561375013101939,0.18742870020905872,0.6177622017831094,1.4348347071621694,1.284568289590302,1.1756202507432645,0.32522778575965344,0.30453157905065636
0.127642583809928,0.19024130798839464,0.6223889845482611,1.4432627714200654,1.2974588078066087,1.1834583692375564,0.32901952235364307,0.30775333991543113
0.12959374014849692,0.19302883440357266,0.6279789193853331,1.4524852393544307,1.3102681999208092,1.1903348227960044,0.3326698203208848,0.31103273929074016
0.13154225649699586,0.1956893889073948,0.6344646966584587,1.4621578174612382,1.3223591450346226,1.196204531614243,0.33628827720063065,0.3141702136977639
0.13351311022805526,0.19821254872840532,0.6407514299440541,1.470981276062685,1.3336709597275092,1.2010253468382803,0.3399128990251022,0.31708867019273945
0.1355970312656518,0.2007088238508845,0.6467547821182767,1.4791578310921343,1.3445207632901073,1.2051390632744596,0.3436000921346645,0.3199084701258287
0.1378338959065513,0.20319034449891954,0.6529426028648833,1.487784139275619,1.3553794890704673,1.2090337681416934,0.3473302057533315,0.3228384429900694
0.14007449319692003,0.2056486701437248,0.6595282243527206,1.496732038532255,1.3672324731024839,1.2130294586333275,0.3508570791776559,0.32578405496918533
0.14218946464705712,0.20821615448120223,0.667310373986557,1.5060190307953825,1.3805398837472813,1.2173986987752565,0.35413933782899165,0.32851446020339065
0.14418891357826735,0.21092569085844845,0.6766240131778245,1.5161496047085812,1.3949248015790503,1.2219806322134126,0.35737164967079366,0.33098288712140667
0.14611604555900215,0.21351442407407165,0.6862904148625953,1.52695028776328,1.40993204308201,1.226835138010315,0.36065335392909825,0.33319833722899456
0.14792534101607194,0.21583132758726079,0.6952017924142918,1.5381140939436928,1.4253729848320509,1.2329285197170563,0.3640058797315795,0.3351429212759592
0.14960680202395427,0.21803306828617158,0.7033890389935812,1.5497949860731413,1.4410534096673933,1.2402077435242238,0.36732930942651687,0.3368332186877726
0.15123790595010045,0.22024287225775802,0.7115844295454129,1.5620260758827356,1.4563393502567197,1.2473773479509471,0.3705080376439861,0.3383923091728704
0.15291286975940277,0.22238471018149986,0.7203012024593025,1.5739225292908832,1.4707250593196874,1.2542747119573798,0.37383946570129767,0.34011188532774667
0.15474183161236504,0.22445278184995576,0.7291673012251889,1.5846516588304589,1.484269198895208,1.2615669166067676,0.37746083253477075,0.3421705196102153
0.15665615998690707,0.22656195750259614,0.7378200074223408,1.5942738916775352,1.4971022397628926,1.2692097055556502,0.38098162884042197,0.3444110852835084
0.15849652006061535,0.22872178654515818,0.7467683731865092,1.603650412200793,1.5089551981478306,1.2768194235503838,0.38419556136095745,0.34679676933847314
0.16021754779465544,0.23080763541580046,0.7561714319256144,1.6134848709073684,1.5197789901066427,1.2846977149265204,0.3871596641005171,0.3494125655960606
0.1618027095288789,0.2327204159546329,0.7653518087493337,1.623199624705143,1.5303299727955781,1.2937479641566536,0.39009588262344275,0.3520319983089295
0.1633366105773486,0.23455940576552922,0.7739492760031128,1.632248934268667,1.5412717246622707,1.3042648603926532,0.3930627675309348,0.3543849423891528
0.16494703078616638,0.23641295349878885,0.7820610959374443,1.6406128651019758,1.5524830973935921,1.3153655147039591,0.39588228702881856,0.3563737315692558
0.16665583397256595,0.23814491795565748,0.7896804836923278,1.6479520848794895,1.5635537650525826,1.3258371142078376,0.39859823873469535,0.35814598971621503
0.16839692144629545,0.23967867914740887,0.7967345651232346,1.6540633438786896,1.5740779968924148,1.3353759598533446,0.40128604674154755,0.35989662218654517
0.1700468621674452,0.24100799760238792,0.8034082449527282,1.659094394041922,1.5837685105939368,1.34456162478691,0.40385742176004247,0.3614844735916497
0.1715612224472723,0.2420936725991319,0.8098185862901044,1.6632076672904739,1.5924114865603627,1.3540558122765893,0.406194593866662,0.362747935975314
0.1729377461409205,0.24299204551565284,0.8157234637791458,1.66709429923816,1.600371714441634,1.36377577544682,0.40823862472690947,0.3637132582077622
0.1741209205865647,0.24377056207731185,0.8210254810174329,1.6719304285628598,1.6081124518408378,1.3727863431944727,0.4099735359836569,0.36441920822340573
0.17509794788980157,0.24445373705500476,0.8257657751981208,1.677609951037802,1.6151677470291526,1.3810294126585223,0.4114980032961499,0.3648362601106352
0.17591027296073916,0.24503836812744967,0.8299909241051087,1.6829340626137812,1.621573947275968,1.3897672798518346,0.41304033649536437,0.3649631937746967
0.17663112844628595,0.24555491704305168,0.8340602186077548,1.6874450512616241,1.6277742901945669,1.3993979078962324,0.41467181566684425,0.3648459239113169
0.17731059501737031,0.2461061330191956,0.8383977180323937,1.6911872691509007,1.6331365699083498,1.4092580951491371,0.4161997850492786,0.36450186187869715
0.177963187210716,0.24674346502218783,0.8427870009758821,1.6944980652504447,1.6375583095412218,1.4190141065848394,0.4174734906952636,0.3639946830338078
0.17860950071428547,0.24743581164614392,0.8469273975618693,1.6984025702785968,1.6415708732064238,1.4283936123289853,0.4184559506114337,0.36337208120729336
0.17925587035654722,0.24805976656679954,0.8510530486286145,1.7032723715263083,1.6451948542671133,1.436922529921923,0.419165558718219,0.3626597312023552
0.1799551573024304,0.24862438540161708,0.8551940416800237,1.7087733232581765,1.6486977066296704,1.44453598531372,0.41974720615365896,0.36197588209380965
0.18075787447670083,0.2493255942454788,0.8591451335209218,1.714792455726938,1.6520545685049441,1.45147367539901,0.4203128673409122,0.36137344318332465
0.1816052645765207,0.2501434085180777,0.8627837289039133,1.720619472291731,1.6546467495313417,1.4574507146657634,0.42078245942402775,0.36072911112472006
0.1823675350509586,0.25089813662091437,0.8660129196781577,1.7259361701917637,1.6563378284881851,1.4626568559619886,0.4210192988148349,0.3599450391895109
0.18295404560445458,0.25151155995542224,0.8687404042187947,1.7309668576459087,1.6573859678164515,1.4681368385120441,0.4210800731153174,0.3590280569304058
0.18337186787847168,0.25193573925307444,0.8708516325390103,1.7351441147524036,1.6576442605892108,1.4738667856541656,0.42115289555519797,0.3579848254292992
0.18364130097299458,0.25218517480005215,0.8725318095117099,1.7382469293237939,1.6570732357730993,1.478921013184101,0.4212371722612141,0.3568285241416888
0.18375516130745795,0.2523140211822209,0.8739518218853586,1.7404326583334209,1.655809773061734,1.4832571463162552,0.4211718612098114,0.3555919268164899
0.1837735872103199,0.25228059268936054,0.8749945713968355,1.7420934003359017,1.653911926869501,1.4874370808647879,0.4210103276676336,0.35437332003813315
0.18383442720497634,0.25210534537230134,0.8756019002994035,1.7440994821724063,1.651903858026291,1.4913432220111582,0.4208638843270133,0.3532466439862818
0.1839692091645252,0.25188821470387607,0.8758188878511717,1.7461732076877252,1.6500597332314224,1.4943351591279157,0.42063172749279865,0.35212875997364945
0.18404755659088545,0.25160448658977747,0.8756689733186593,1.7473000562107184,1.6478593899949665,1.4963561282786884,0.4202442605953118,0.35088664609332676
0.18397155696977266,0.2511837835359456,0.8751080720631417,1.7476538067168144,1.645467523542946,1.4982888032669899,0.41980221027149933,0.3494734124671717
0.18380816461650046,0.2506725798564969,0.8741746434334127,1.7479496810027597,1.6439043450404993,1.500609857902405,0.4194086645999493,0.348004834983429
0.18365493840082864,0.2501421614518786,0.8729793806233683,1.748423916903626,1.643101922134402,1.5029525041876597,0.4189549204237203,0.3465449100878409
0.18350489851578292,0.24961393327096512,0.8718958574576539,1.7492621983050742,1.6421654817867903,1.505260054520356,0.4183236846349486,0.34500775383119175
0.18335136539493987,0.24907493819700244,0.8710472973433753,1.7502540031506575,1.6404331565618737,1.50729111189973,0.4175433376468789,0.3433647766600563
0.18317458120548188,0.24846599089762794,0.8699562920906682,1.7506629333498334,1.6380882961310033,1.5088551522123461,0.4166077407509617,0.3415820476270874
0.18289549557748477,0.24775728936841776,0.8685341414576839,1.7505406675123534,1.635794948479137,1.510412233295365,0.41557134547553665,0.3396138733123783
0.1825188235947222,0.24698728253828603,0.8669637576545096,1.7504920855154933,1.633319080736049,1.5118341211801285,0.4144395327211033,0.3375237002659646
0.18208928537903055,0.24615937790268622,0.8651461231887878,1.750400371012794,1.6303701469096823,1.5127642766001388,0.4130637647281637,0.3353589637577812
0.18160290704012574,0.24520334528089052,0.8630268779339487,1.7496256353309736,1.627098584848993,1.5130159058562513,0.4113957975233931,0.33310493609428854
0.1811027439329121,0.2441056177701781,0.8606211747820895,1.748004415347009,1.6232741929719683,1.512491219140196,0.40958365840907535,0.33076767366071
0.180596563922453,0.24290015651193037,0.8578969830141348,1.746196855076492,1.6183630672881169,1.51157212845707,0.40783594069538986,0.32833967810360354
0.18002494357844215,0.2416529806019667,0.8548039134663022,1.7442061113131606,1.6124372324942282,1.5102699745225197,0.4061181024043282,0.32582723642573125
0.17941802237673374,0.24049414000320565,0.8513409245095861,1.7411795783895323,1.6060212078773246,1.508054412763776,0.4042499827873884,0.32326987371789556
0.17885815175625433,0.2394877743158966,0.8476410959968328,1.7368977516530604,1.5991692333639065,1.5048001266566189,0.4022131722521996,0.3206920689158655
0.17838394331595722,0.23862154316867995,0.8438453251815229,1.7317402411872218,1.591967042465216,1.5007559757722957,0.4001239431628085,0.3181105709722514
0.17793864467726328,0.23783001953324914,0.8399815038003646,1.7261044358043987,1.5849315681602898,1.496013676732881,0.39806682190398696,0.31552134669481896
0.17740776821344284,0.23701711770334427,0.8360162036289088,1.719902900233274,1.578837928541257,1.490768609777069,0.39602902729849665,0.3128737439393082
0.17676211557877744,0.23615112173082609,0.831884117311014,1.7128385944617308,1.5742728716910637,1.4854287865138232,0.39399831493342113,0.31011268212397647
0.1760407276308243,0.23522848900164398,0.8275296224836617,1.705149724117389,1.5707397912741305,1.480157256907884,0.3919094780224022,0.307219013574867
0.17523422009360376,0.2341923978967454,0.8230133898689219,1.6974725894671425,1.5672946485428991,1.4747355060066971,0.38966008381695466,0.30418792263716676
0.17430695485822187,0.23299529154670412,0.8183668659932751,1.6899745552040237,1.5634555594159145,1.4688610563852205,0.3872392233309543,0.301028307507554
0.17325170291740552,0.2316520087660455,0.813459793721196,1.6819396800638473,1.5590293992181545,1.4627264009254048,0.38467005695318507,0.29777554759828034
0.17208173083539302,0.23017688465298794,0.8081410841396508,1.6729711492714472,1.553972407579653,1.4565627203674036,0.38196150987867,0.2944635747877553
0.17081652536943714,0.22855701482289922,0.8024003305967422,1.6632853434667492,1.548256706731033,1.4500763587390646,0.3791222540094397,0.2910914737952576
0.16948150434986453,0.22680693922759426,0.7962948456733698,1.652996329307825,1.541769348906113,1.4430268485300108,0.3761473386812568,0.2876584271647242
0.1680943624898624,0.22496074953383163,0.78981962989395,1.6421135095821595,1.5346637918306016,1.4354989555926185,0.3730388452922473,0.28417708371114186
0.16663864610405918,0.22306452061019044,0.7831440928010462,1.6306731955646299,1.5275487521895688,1.4275608521066734,0.3697988937517218,0.2806261594352783
0.16510536868223155,0.22118243125297457,0.7765307647309582,1.618717344754919,1.5208794701049633,1.4190441353767045,0.3664095808975494,0.2769853624381014
0.1635261248399525,0.21930899809165647,0.769943211329693,1.6062598452353314,1.5147433026707162,1.4099821721536223,0.3628806695886021,0.2732687991690103
0.16193118058460623,0.21740553791510267,0.7631994656713453,1.5933345237354317,1.5087485933301572,1.4005010089507455,0.35922163319919986,0.26951009407291154
0.1603093861070471,0.21545513539391842,0.7562593383201626,1.5797468662108276,1.5023734779206885,1.3905611565746907,0.35542160119067173,0.2657414510852022
0.15867684586659853,0.21343496964242872,0.7491246916443767,1.5655053435957378,1.496122030957101,1.3802790616677008,0.3515037413109904,0.26196694045446556
0.15712252035193214,0.21133665074698635,0.7417105774726569,1.550839326460531,1.4907103107300856,1.369746383079956,0.3475170720948492,0.25819714717022574
0.1556645691031699,0.20915891479476445,0.7340563561515296,1.5356677596597248,1.4859532735281935,1.358823715986622,0.3434818045260857,0.25444219168298093
0.15421998015820584,0.20690062947004198,0.7262801408294418,1.5199202844365514,1.4813389871974267,1.3475385529925255,0.3393838884413698,0.25071174032071225
0.15272270795745063,0.20459421919938045,0.71832119486131,1.50370399037774,1.4763709425020726,1.3363454430069002,0.3352567464079735,0.24701501569115614
0.15144392560808417,0.20243789467815884,0.7101082254998373,1.4871150800108264,1.471330061021883,1.3253180515194087,0.331139062741207,0.24344772446429852
0.15068961277202247,0.20069465369103756,0.7016668867198229,1.470265992854894,1.46672582118605,1.3139182609705435,0.3269809141429276,0.24013471906114717
0.15037753258604647,0.19953543485033537,0.6930553679154657,1.4532845912674373,1.4622896269963157,1.3020595990043433,0.3227947594515997,0.23697454429199435
0.15045533876783995,0.1990028373940098,0.6843361800359268,1.436012498845036,1.4576173014204723,1.2900743232035807,0.318659402669918,0.23384994842601517
0.15103973225527487,0.1987893347752534,0.6754823040780775,1.4182450146507861,1.4522622858566545,1.2778792174469134,0.314596686593044,0.2307557159786864
0.1524090023684164,0.19852691085905796,0.6664479673556412,1.4000275059162794,1.445985293307738,1.2652143636952116,0.3106942942200503,0.2277403164304832
0.15458789289909353,0.1982647466177122,0.657243048151516,1.3815375219328945,1.4387923338147768,1.2520321711277973,0.30706937315765465,0.22507735928924996
0.1571312739379146,0.19820366249389654,0.6479172758861148,1.362905043685166,1.4306833545980342,1.2385416827612166,0.3036465056113777,0.2229279344267183
0.1597935281544073,0.1984553264324086,0.6385049636896996,1.3440606485608373,1.421819652429462,1.2250100145524372,0.30028649655558703,0.22107790808042438
0.16255354761243482,0.19905939221996496,0.6289587856690874,1.3248913337123556,1.4126169955648185,1.2113717885385473,0.2970700897154867,0.21955617129886243
0.16523727031772587,0.19980606991063754,0.6192670315500549,1.305556758835525,1.4036673044093781,1.1974709673592745,0.2940676953979167,0.2187711420754075
0.1676983298924208,0.2004410609424007,0.6094988719380177,1.2866310200619018,1.3951019454421345,1.1832387794329664,0.2912461682090372,0.2187183075203048
0.17000420004886155,0.20098866362594175,0.5997205453028143,1.2685358375819105,1.3865113290580762,1.1687568526427095,0.2886204301953065,0.21889788336343924
0.1722797457527051,0.20158586594503622,0.5899753635870884,1.2512191584459968,1.3775304331115692,1.1541302525474153,0.2861377063824996,0.21898535668953403
0.17459763339457846,0.2022834235543004,0.5803180964646779,1.2346571839556941,1.3679976814834949,1.1394328747993459,0.28376074903994714,0.21911167861420153
0.17693372731446266,0.20308967384270576,0.570767618874102,1.2185924126022212,1.3579663169187752,1.1248090176442953,0.281473884838069,0.2194823035429082
0.17915126190192526,0.20401248695110494,0.5612883947868075,1.2027847388819002,1.3474275762200596,1.110095769740848,0.2792018609860823,0.2199725959300968
0.18117301697177285,0.20500579084583892,0.5518329917403924,1.1873585987518118,1.3362264758544327,1.0950437822185775,0.2768593086671231,0.22044316303906525
0.18301892041482104,0.20605219137667025,0.5423560155151893,1.1721250984028284,1.324329067989982,1.0796622493270807,0.27441143864899814,0.22095458134266913
0.1848753527561635,0.2073623214586929,0.5328608670639675,1.1569835981246186,1.3117971556412515,1.0642410939967835,0.2718919347306099,0.22151795376472755
0.18692058494352407,0.2092711251437482,0.5233441311365726,1.1420450073969524,1.2986637248480088,1.0490108767473836,0.2693732018196292,0.2220168174496711
0.1891043221636669,0.2119780658908359,0.5138025617383961,1.1271812116900721,1.2849207932008166,1.0337907971988218,0.2669178116741335,0.22240669240997502
0.19161232990832924,0.21527869736539956,0.5042665076796777,1.1122428478342699,1.270628173152039,1.0184079021035388,0.26463235743925556,0.2226986244496601
0.19453507051756092,0.21866933065775068,0.49473156382750855,1.0972342064160352,1.2558904102928554,1.0028707461220387,0.26265206582237705,0.22286315819548586
0.1974572282117131,0.22188202896802184,0.48518682945388253,1.082212947050405,1.2407410772629484,0.9872077189522095,0.26086529811108594,0.22301264632840667
0.2002088583117009,0.2249682247201324,0.47564194485091416,1.0671205746388928,1.2251525115159456,0.9714126683299206,0.2590581048996692,0.22333480507024653
0.2029150619711312,0.22810427053285157,0.4661128174782472,1.051834345178594,1.2091120485774927,0.9554664648977521,0.2571595730394136,0.22399565457522416
0.20559525845156745,0.23130503031611388,0.4566146483032127,1.0364041846799348,1.1926414403733592,0.9393977581972361,0.25516213277527794,0.2249664666716519
0.2082279325082633,0.23440413880985383,0.44714857591853363,1.020984963775034,1.1758087105274153,0.9233009305766983,0.25323247360346496,0.22591859442293882
0.21071231830003737,0.2373094180558478,0.4377357163129108,1.0055576635726198,1.158759507662006,0.9072997197942823,0.25157009159405774,0.22668478170981474
0.21303908946544137,0.23995962675739443,0.42844301815728053,0.9900104961145307,1.1416266740825725,0.8913653031169422,0.25007805938410577,0.2273191707953252
0.21531982427388036,0.24236329073517784,0.4193544626336993,0.9743302504184921,1.1244370706843017,0.8754366160854723,0.24858326580589674,0.22781350477426868
0.21761449497954097,0.2445756050112751,0.41048332478267385,0.9585579057146559,1.1071228425362405,0.8595956473829944,0.24704047230715478,0.22813327695387678
0.21996708230042217,0.24658269122950796,0.4017418035451924,0.9427394352963532,1.0895857739797854,0.8438471925838508,0.245446568302496,0.22831250824511307
0.2222791947623748,0.24836478631648445,0.3930725320534755,0.9269054872497524,1.071832421898134,0.8281690057315031,0.24378525581678387,0.22841062063506903
0.22446344165301768,0.2499165751521949,0.38449411213598145,0.9110252191632336,1.0539160687234053,0.8126065992991265,0.24205438211183894,0.22847116025657666
0.22658344437627523,0.2513000554796441,0.3760443074051301,0.8950424298254576,1.0358677809338317,0.797123164726792,0.24037230233109536,0.22859599074904732
0.22860651824937805,0.2526014371555669,0.36777248814411695,0.8790104345671501,1.0177909478427651,0.7816433010520966,0.2387986935980079,0.22878888370586428
0.23052823634090447,0.2540369820171836,0.35968559162665603,0.8630137091066793,0.9998112372193575,0.766155054101081,0.23718995634142723,0.22891297607381908
0.23243806530816527,0.2559337716059702,0.3517165296313467,0.8470795364743704,0.982048762007987,0.7507138568192039,0.23546225284712805,0.22890427832884497
0.23439485157808113,0.25816295542621165,0.34380101558252707,0.8312807553686068,0.964537974309397,0.7353726878164606,0.2336424788003452,0.22877525539230825
0.23655512830610195,0.26044049854611634,0.33593767845294137,0.8156467927489829,0.9472179827164328,0.7201620690138762,0.23199045838203058,0.22880538483801088
0.23890796693570654,0.2627621006257482,0.3281452142840861,0.8001120343078566,0.9300504155995943,0.7050976980158241,0.23102200097984926,0.2298100937603104
0.24122209143224987,0.2650901758952955,0.3204146944163293,0.7846136213188596,0.9129315621217712,0.6901810771652902,0.23081531170839595,0.23206698633480077
0.24353037980079487,0.26742219544559065,0.3127776341183591,0.769184994933584,0.8957554853534843,0.6754001289673269,0.23112353593802573,0.23477064151361504
0.24611835318109596,0.2698493398146381,0.30534432034164005,0.7538647616537526,0.8785211965523406,0.6607030540623557,0.2318972560336594,0.23746444741050746
0.2490850201880944,0.27236513197451495,0.2981598770806265,0.7385961422798042,0.8612545499596396,0.6460669669427909,0.2329750912419325,0.24023314874522464
0.25214362189553907,0.27487637337744975,0.29114687996366095,0.7233247751975083,0.8439602496633556,0.6315434632368454,0.23412883472437226,0.24297052852073436
0.2549863423380294,0.27734740756853604,0.2842311036773132,0.708045465480279,0.8266695658435605,0.6172419613116239,0.23522704079198906,0.24548141242112603
0.2575262150984112,0.27982439785854274,0.277381570331745,0.6928000533010628,0.8094324641642227,0.6032201086067053,0.23619751715316484,0.2476863016223322
0.25984749423402337,0.28235149572023915,0.2706020140397116,0.6776485857492393,0.7922498855561012,0.5894191162119434,0.23715853875879842,0.24973008393204102
0.26217138850587396,0.2850444310856418,0.26394274076379043,0.6626216659743249,0.7751427352844525,0.5758293384195653,0.23820319203079018,0.25179162212979395
0.26466937550587777,0.28799368672144077,0.2574316963663632,0.6477016453035244,0.7581643670980414,0.5624881464535872,0.23928003241929754,0.25386815432638044
0.26734485006534553,0.29092452436125565,0.251062039409127,0.6329383983476611,0.7413055182696765,0.549364187986822,0.24045348111133336,0.25599713990326106
0.2700471111904536,0.2935407328643602,0.2448337752111273,0.6184396545826216,0.7245237834371968,0.5363871476990019,0.24179175247095996,0.2582344176169406
0.27271889834167967,0.2958668309822024,0.23876014426286557,0.60428814873395,0.7078253272499484,0.52353642575405,0.24314598685836264,0.2604728322282321
0.2755327911736336,0.2979733537335169,0.2328870921539929,0.5906429163938792,0.6912493958347872,0.5108389972357431,0.2444072078858286,0.2626901154228227
0.278479897661892,0.29985443743485996,0.22722494443095745,0.5775018163323966,0.6748668413070593,0.49829377317828905,0.24561166971430912,0.2649318465279534
0.2813777487796685,0.30148463300149614,0.22172320072788856,0.5646483631292877,0.6587118203458955,0.4859597385819538,0.24670718842571118,0.2671279393375152
0.2842457451563507,0.30298693048002323,0.21636014419588404,0.5519821765864192,0.6427098103712694,0.47391985510238027,0.24764395300079564,0.26919802548681676
0.28728967988020443,0.3045660161031152,0.21114161164341727,0.5394806033616012,0.6268361812371692,0.46219302161522724,0.24847475960325166,0.2710854086386462
0.2905591421800438,0.30618359866317985,0.20603293097917413,0.5271017577575199,0.6111274227769693,0.45081038539899526,0.24939730335644986,0.2729566691450307
0.2937469930169497,0.3078966171394211,0.20102088864090226,0.5148321996061659,0.5955781642130554,0.4397813500230359,0.2505270542185678,0.27507145326589166
0.2966330647716884,0.3099533366852573,0.19613955366006133,0.5026656532439007,0.5802232298999588,0.4290744533082296,0.2516132226788601,0.27731684735895046
0.29924105724382977,0.31216968683070756,0.19139464454706548,0.4906428179520592,0.5651291730168538,0.4186258595310419,0.25262991022535264,0.27944431346105625
0.3015604790238672,0.3141621774400285,0.18681155745885414,0.4789094608932903,0.5502992291386136,0.40836757170464033,0.25374630354977645,0.28138337686075743
0.30360163107940563,0.31583832369091025,0.18244117251649491,0.4676582228856635,0.5357228663413786,0.39836808309589267,0.25485001673274926,0.2831871544838573
0.30540806515825814,0.3173372876626192,0.1782784657945454,0.45687901516015633,0.5213763936553351,0.38867928874368324,0.2558603037922041,0.2849734451410832
0.30704841083120654,0.31875223929540414,0.17425157164737237,0.44636115302909,0.5072034979181588,0.37921012352677497,0.25687385267431967,0.2867747139727482
0.3087489385274401,0.31997180219065713,0.17027824441942158,0.4360165162946942,0.49318357532377893,0.36992675527454,0.25800989029010596,0.28847490985186636
0.3107126557849879,0.32096986004367545,0.16635999228324805,0.42590773789213815,0.4793836871498613,0.3608367583878562,0.2592553110035495,0.2899631223862541
0.31282594019724164,0.3219489677582534,0.16257175019587908,0.41614798888648796,0.46587445396244653,0.3519739352408507,0.26065764668629715,0.29128055658919044
0.31489304516822186,0.32331684677454803,0.158978385246057,0.40682512751634864,0.45259611367981506,0.34337708591313937,0.2624828486449958,0.292573766997469
0.3169139818287068,0.3252892903162658,0.15556821200029564,0.3979091110166869,0.43949127834823515,0.3349961501908912,0.2647241504582189,0.29384255777600915
0.3188620615817504,0.32753725402690975,0.15223627261315612,0.3892571481673581,0.4265851178252355,0.3268365224754703,0.26708049604810197,0.29491961632197494
0.3206917680949702,0.329765784473272,0.1489288964704991,0.3807658277734442,0.41391488827931233,0.3189499507676442,0.2693440325094013,0.29576543310296854
0.3223931070609823,0.33198694655790423,0.14572175470026263,0.37251659818223687,0.40150262717825674,0.31135224090144137,0.271409632419282,0.296449414041101
0.3238764109691954,0.3341521144134291,0.14268044731733423,0.36466736602181515,0.38936247931631157,0.304064918923921,0.2732437874427637,0.2969779315871565
0.32510960706146097,0.3361011681122844,0.13979401800301977,0.3571615251282577,0.3775010261448501,0.29700130051325696,0.2748347267016157,0.2974307768542165
0.32616254711909526,0.3378015017693143,0.13716549825552418,0.3499512836652004,0.36587749236860945,0.29003813663316386,0.27617142564600244,0.297870974675408
0.3270420478602062,0.33931576991261564,0.13489319320770574,0.3430708727211292,0.35446601684904205,0.283231272022674,0.2773104438067431,0.2982050463212915
0.3276812517223943,0.34067734015264634,0.13295044493559588,0.3363922544974763,0.34327508731961054,0.27672757707483153,0.2783395034642975,0.2983503637165292
0.3280632401974387,0.3419316493945631,0.1312980638962639,0.3298796778335546,0.3323059237908599,0.27056027177808517,0.279269075473654,0.2982748734073543
0.32821219404319874,0.34303534617244014,0.1298247377536035,0.3236391899171917,0.32157285106352773,0.2647006341522702,0.28008921385148117,0.29796818590344093
0.32817152605319894,0.34385350496437445,0.12845056234689575,0.3176917353812517,0.3110893435045717,0.2591142073812325,0.28084399811466493,0.2974807599969598
0.3280030033907833,0.34438437241304976,0.12717924158250735,0.3119367186022176,0.3008413051786737,0.2536808508438348,0.28156228343328416,0.29688109408031677
0.32769897293954436,0.34482712734142096,0.1260275910173468,0.30631784541102275,0.29084176919409954,0.24833898464225154,0.282244962458635,0.2962147603557529
0.3272388730752112,0.3452587168396337,0.12495809229894106,0.30082793821728854,0.2811765078705849,0.2431700216235782,0.2829129812887093,0.2954919852179367
0.3266566740143284,0.34553880440706675,0.12390803435553281,0.29542657706315933,0.271887127732466,0.2382784136214791,0.283573018026282,0.2946423737008665
0.32591144213611156,0.34559347190421874,0.12285752826402686,0.29007501300799177,0.262912775036023,0.23365683034205548,0.2841512368247958,0.29362545621396646
0.32504441149196417,0.3454725782054736,0.12179423578760717,0.28475619078415493,0.254181564470324,0.22919771003521686,0.28459046137041627,0.2926433776987353
0.3241553154292546,0.3453309602612925,0.12071973911659664,0.27946045062724095,0.24563118581169394,0.22483143811217007,0.2849230516156653,0.29194963857320205
0.32319916951645616,0.34529000256888664,0.11964893441036845,0.2741651583581362,0.2372286058446057,0.2205314512638909,0.2851533204005335,0.29143208911626245
0.32213969486654814,0.34526513889609245,0.11856263716089442,0.26887540678010907,0.22899557179858454,0.21628564843938422,0.28533897956284243,0.2910367707546477
0.32091554508028286,0.34510191691494463,0.11745588341368508,0.26363617775760717,0.22095272216274528,0.21220943527237687,0.2856355653760378,0.29112648090696314
0.3195016284014453,0.34475970507024273,0.11637743231206553,0.25849044963232176,0.2130928711258504,0.20847989810549888,0.2860179131785811,0.29177365876580647
0.3179677300351506,0.3442198681705206,0.11532709510284267,0.2534391270712047,0.20541565442627358,0.20513237398353298,0.2863147780836899,0.2925656686848543
0.31628711505470125,0.3434246559107328,0.11426454836830464,0.24846292642272466,0.19792054731005973,0.20210669216596314,0.2864627287182341,0.29320127017782804
0.314414294118118,0.342365875829402,0.11321140637304544,0.24355001546068059,0.19060018605780307,0.19925806858934406,0.28650152328275413,0.29376019204279374
0.31237279978701793,0.3410894335703811,0.11218164907136441,0.23868901504176673,0.18346073015257794,0.19649464171390718,0.28645592570749767,0.2943856319281145
0.31020536269024307,0.3396929376591179,0.11112845273641075,0.23394253589768635,0.1765145827105445,0.19383543497901137,0.2862694737988363,0.29497380607070284
0.3079730359927449,0.3382230691385301,0.11006053869040498,0.22937704331909287,0.1697533633646127,0.19136540405883376,0.28592841071323405,0.29536530315864556
0.3056941666352888,0.3366242619894331,0.10901300728455843,0.22491553449144422,0.16316219143721314,0.1894865559280681,0.28548658623767326,0.2955281763633234
0.3033061177522771,0.3348902910485802,0.10797261218071284,0.2204909384238846,0.15675341255696132,0.18868983233332576,0.28493543373676244,0.2954989474110573
0.3007490798518715,0.33303539002988425,0.10692667578822171,0.21617278223021663,0.15052528785970246,0.1891362418850025,0.2842401205822422,0.29526593471157614
0.29801949332413225,0.3310398610819317,0.10586976274182427,0.21200072505400783,0.14446260772754796,0.1906911001572697,0.28339421083830735,0.29487164868693927
0.29519435128110955,0.3288983700250949,0.1047966844745098,0.20789890032851066,0.1385774075870923,0.19307741448657234,0.28249866890897785,0.2944304536072529
0.2924075668373273,0.32659926944654005,0.1037091794559483,0.2038481581972532,0.13292114422879986,0.19601605466608416,0.2816902352980492,0.29393144200499755
0.28977382479558084,0.3241650000198347,0.10260892453641732,0.19988361930229478,0.1275428172963467,0.19935983440078242,0.28100602081419795,0.2934578395872827
0.2872689593432035,0.3216305296345651,0.10149085005151724,0.19599199316897356,0.12240879730941807,0.20302106006766207,0.2804212300538483,0.2931694622967595
0.28472932536573436,0.31900934547959336,0.10034343789533315,0.19217386839346445,0.11745993652192674,0.20675507951289665,0.2798719334183725,0.29298499384466303
0.28205859631784047,0.31630774640260667,0.09916238477428135,0.1884364229869901,0.11272639617586354,0.21029437221732558,0.2793170030495831,0.2927128901113611
0.2792784194360929,0.3134783475288468,0.09796366474073606,0.1847530153692879,0.10824350489252745,0.21359718164888936,0.27871041783966755,0.2922235030198781
0.2764296647750824,0.31048263249269586,0.09677594663805066,0.18110479548933298,0.10394452474337079,0.21671739752843325,0.2779547188252559,0.2915534911947075
0.27351137680968773,0.3073708366797069,0.09560658498295074,0.17749375634093467,0.09975875447624714,0.2196331985144913,0.2770303717066753,0.29085844176756215
0.27051602271422037,0.3041911244988512,0.09446928292406999,0.1739217684140945,0.09567862954588056,0.22235733866113291,0.275979027479387,0.290126741898158
0.2674498433226227,0.30090940143014444,0.09339048907837733,0.17043069893760204,0.09173024191121408,0.2250559797597723,0.2747737902058763,0.2892403435149006
0.26429881878000866,0.29749315306109547,0.09234864453822586,0.16706051762280796,0.08794510844077366,0.2278680295765337,0.2734024532293965,0.2882135109616794
0.2610563063495657,0.2939582094906487,0.09131640564049161,0.16379585290139076,0.08435990473851677,0.23075910111421793,0.27191367429559493,0.2870934540573969
0.2577494700598443,0.2903198274924919,0.0902943515200653,0.16060852741904597,0.08098946173962168,0.23372296923424976,0.2703206802753757,0.28584518960821764
0.25440435559116475,0.2865993866543671,0.08928971226615678,0.15746482768544726,0.07780095686457908,0.2367803528558136,0.26860948004489943,0.2844420643916435
0.251019169912898,0.28282410266245456,0.08830270100779294,0.15435920697331243,0.07476281823286235,0.23986406284290576,0.2667935484202637,0.2828988486692949
0.24758555064498514,0.2790000035944029,0.0873268186393469,0.1512930087870137,0.07185138674692902,0.2429632920690847,0.2649059336255123,0.28121643418168035
0.244088859611056,0.2751395886517549,0.08637589560062976,0.14826079423308441,0.06909071079798237,0.24614123355865014,0.26297831693590124,0.2793824363967812
0.24053521351026858,0.2712615348815125,0.08544307935231125,0.1452773858257776,0.06653707794843038,0.2493579688955541,0.26110121508152173,0.2773985272211
0.2369438901272964,0.2673436089991745,0.08449505384369649,0.142330171011572,0.06417058432766451,0.25262876455152417,0.2593277327285863,0.2752664506361125
0.2333133080177435,0.26335789643687846,0.08352670931731693,0.13941373634369217,0.06191852270997176,0.2562021797768365,0.25756147578054867,0.27299470383659613
0.22966205022520333,0.2593111909056921,0.08255323554612745,0.13656967558660385,0.059744664752286375,0.26025550660339114,0.25572360400652694,0.2706249793738884
0.226027970066003,0.25521004977179695,0.08160922502578893,0.13383770512029583,0.05764771073221873,0.2646168856177775,0.2537989460090656,0.2682039385396562
0.22240714358173197,0.2510674839505949,0.08072105259024685,0.13121559145600706,0.05561965720854592,0.2689745373889289,0.251773073470426,0.26572946276104964
0.21878243263091826,0.2469227227604112,0.0798737772871532,0.128667662333729,0.053659467975287575,0.27322412754220954,0.24967908446970866,0.2631995771186354
0.21515081949120424,0.24278654906053274,0.07904638200530156,0.12617309596657142,0.05175940038337832,0.27733950551351005,0.2475620764355695,0.26063250387284065
0.21150942424297417,0.23863583906542687,0.07823211567526665,0.12377878342906438,0.049911990207206526,0.2813024726735375,0.24538497780188562,0.25800559358903785
0.20786887346962224,0.2344618598064206,0.0774378798374045,0.12152948129335849,0.04813010461402284,0.2852161155560427,0.24309901410185394,0.25530392481674474
0.20423933114701037,0.23028302409912166,0.07666357082419373,0.11940768758993194,0.04645273216807087,0.2891523447358817,0.24071112316311347,0.25254672648213317
0.200617137025731,0.22615037906518212,0.07594250000576902,0.11740322377340122,0.044970553866317944,0.2930127751594561,0.2382347256792115,0.24974575954904368
0.1969787249607046,0.22209265104943943,0.07533990953523281,0.11570013301622585,0.04375006373306609,0.29668999849645616,0.2356961164854072,0.24688557233227706
0.1933082545164104,0.21807707214049218,0.07485123245491192,0.1144607977864772,0.042807811884543016,0.3002954013951089,0.23314056566396382,0.24393138393103547
0.18962403434546204,0.21407225770762348,0.07441181670690897,0.11353254239012782,0.04209250106701168,0.3040960622869517,0.2305712766569966,0.24088344541746767
0.18594359074822636,0.21007492040494613,0.07396645816954045,0.1130498356038532,0.04163507556944054,0.3083873805725394,0.2279578971894211,0.23777551723352633
0.18227699879630602,0.2061287102028615,0.07353590292227037,0.11328796352810272,0.04155848934197261,0.3132374944494736,0.2252848084592539,0.23461320681609696
0.17863388236285316,0.20228201679872812,0.07315335311288013,0.11406828044800892,0.04173260522874202,0.3182898264871806,0.22255049995399623,0.2313818725636159
0.17501673848461488,0.19850079952470515,0.07279703406653015,0.11521269453165303,0.042199848172952865,0.3231496119373677,0.21976027186040079,0.22808094769109197
0.17144798847389142,0.19475911973634402,0.07252632348130517,0.1166574769171123,0.04319440916048388,0.32770017917944133,0.21691256207123993,0.2247233291375192
0.16792897471155663,0.19109898735784933,0.07244473774834104,0.11826114672833384,0.044478462170049894,0.3320575476838717,0.21401930376592238,0.22132809407661527
0.16446093322637229,0.18754045012531392,0.07251070719197339,0.1199417055654692,0.04584429460123887,0.33664043555320855,0.21113207125080774,0.21791352697460342
0.1610650549857879,0.18404909885713527,0.07259740874281884,0.12170756155009413,0.04738063735501154,0.34182908935369405,0.20832693560157828,0.21451719424831464
0.1577080527735489,0.18057189694204107,0.07271722966319406,0.12360679079364903,0.04900505194313351,0.34759217541087734,0.20560972332390848,0.21116164030380172
0.15436473433525827,0.17711158651775677,0.0729622183856379,0.1258122845619046,0.050585109690087185,0.3537587620818651,0.20289900543666844,0.20780821689349926
0.15104441873918922,0.17371088997599637,0.07332669905667301,0.12863621621418767,0.05219475823176418,0.35999780737681186,0.2001503150636785,0.2044199532236954
0.1477693697816829,0.17035712796384034,0.0738452428375638,0.13220944728739698,0.054018364364108416,0.3660527588067973,0.19735458412645138,0.20101500638465622
0.14456084005429304,0.16705149872242722,0.07463768721978827,0.1363689331281385,0.056058241609769036,0.3719592005158172,0.1945165559348052,0.197610760532795
0.14139897864413814,0.1638419036316362,0.0757047363440108,0.14109855344968925,0.058249534616796675,0.37760422267726773,0.19166086636948737,0.19418372797137262
0.1382848100931804,0.1607540118762071,0.07699999695915953,0.1463756521111114,0.06072395289634138,0.38280652899879436,0.18878435396079185,0.19073152155414638
0.1352393262385771,0.15778551583909933,0.07859921874526314,0.15217802896865082,0.06347348992614615,0.3876538812839181,0.18589070068213448,0.187278625991804
0.13223573869971328,0.1549207210065869,0.08046759085831592,0.15906561950320378,0.06636987433376747,0.3923843471616431,0.18299013100446446,0.1838284047824161
0.1292550687264329,0.15215788668220262,0.0823977205503752,0.16701804455968555,0.06939724244356146,0.39695832339764836,0.1800590019874314,0.18037738672273096
0.12633262782299778,0.14948856342323813,0.08431151515144794,0.17545984836235087,0.07258709517951176,0.40125116144545553,0.17711484335391073,0.17693562413282618
0.12348876486077635,0.14688452082729864,0.08628138237354621,0.18462236649879585,0.07600952340758915,0.40542471102121286,0.17420117944531288,0.1735194095144857
0.12072949665372164,0.1443654939361873,0.08834309945046334,0.19468607003391317,0.07975140542805538,0.40956035811726205,0.17132618398375254,0.1701576746006186
0.11808055473876926,0.14197033596454262,0.09041045301916492,0.2051674938804166,0.08380193235936927,0.41347523637070915,0.1684976381595138,0.16686466935242134
0.11551295830870695,0.13965586067186203,0.09243440056146092,0.2157976719541419,0.08804349179095543,0.4169612094859886,0.16568951040607288,0.16360047049290063
0.11297216360520056,0.13738068063890188,0.09448841984705347,0.22657324909287627,0.09245700124353683,0.42004692252719594,0.16287019472659237,0.16033354780731768
0.1104594588989246,0.1351385988251559,0.0966695103561455,0.2377115120506826,0.09722462010980143,0.42286713744113685,0.16004289917661077,0.15708054557683943
0.10798273531209124,0.1329102836282061,0.09898341624510766,0.2496272195266235,0.10251356398075172,0.4253972392920321,0.15720401415127835,0.15385737134405505
0.10554282035613309,0.13069728809764722,0.10133521451344474,0.2617936940864921,0.10806874940956249,0.42760727695022166,0.15441027168210433,0.15067921257120842
0.10315384195378352,0.1284877110947982,0.10366750035332738,0.2735464407619395,0.11370609448625757,0.42956919916575476,0.15173595271526147,0.14756723922386156
0.10083595085834764,0.12629690917691955,0.10590532453439516,0.2852731915049615,0.11978431383558241,0.4314791007289061,0.14917176347458608,0.1445483233550443
0.09860166756107233,0.12416629725218478,0.10805063153658577,0.2978463005207017,0.12680657092700612,0.4338455308928853,0.14668864987159924,0.14163470750780938
0.09642945796996757,0.12208194474636339,0.11027251951294324,0.3118118995746267,0.13481197921373117,0.4369338619940272,0.1442453702200447,0.13878451291568678
0.09433877958217746,0.12003716775039242,0.11262568903210894,0.32661460457592223,0.14340241623291675,0.44030858403635525,0.1418024365885868,0.13599104925097874
0.09239496730939531,0.11805227842227325,0.11497513011710803,0.3411741099722224,0.15234358664352882,0.443800216498341,0.1393822502994516,0.13332140764853517
0.09060020147108938,0.1161265905481415,0.11725187701506862,0.3554334404175675,0.16169184818203955,0.44764100228382203,0.13718005204241943,0.13079952844197662
0.0889296799266575,0.11427944844167257,0.11961066763956614,0.3698197750032574,0.171667865318006,0.4516983992189432,0.13540244547359553,0.1284147391801515
0.0873595583954042,0.11252927995286188,0.1221459487222053,0.3842869616915662,0.18230827238867045,0.4558053000763186,0.13392572029863228,0.12619681457067247
0.08586693185160249,0.11082007300766,0.12478742939711572,0.39922536300452033,0.19343351977893727,0.4601762251335284,0.1325242764696455,0.1242008181412307
0.08444318772955677,0.10911826792750444,0.1274945146686818,0.4147939722838201,0.20517894624813793,0.46485565460757877,0.13121625340314588,0.12241234676209868
0.08305996336999445,0.10746530176364585,0.13015476481790345,0.4307297360225113,0.21782050147855442,0.46967857334895474,0.13006571373052087,0.12071713354624512
0.08170346143958374,0.1058807058521391,0.1328545642291065,0.44718852079056637,0.23124686480655246,0.4747811806125017,0.12897332121707875,0.11905258886965339
0.08037383029586277,0.10434298103699556,0.13578348042289648,0.4636570053660947,0.24564497745549846,0.48019319760059115,0.12788411600317387,0.11741230104789642
0.07910461567799092,0.10285826100203056,0.13874820838263152,0.47932992637092264,0.2612662642041085,0.4857154327851362,0.12687255663421884,0.11585028719363807
0.0779211612681892,0.10149253529828206,0.14187804868783968,0.4948485186031717,0.2777884227898609,0.4912107319940536,0.1260231629071709,0.11452511673221714
0.07678745302211248,0.10032218284036648,0.1455104741174395,0.5115751270129548,0.2951964692697106,0.4963674065143835,0.12533639368903035,0.11344114859635764
0.0756957377232094,0.0993599011883717,0.14955996370739122,0.5293073881023856,0.31328800886339336,0.5009946146655541,0.12475235731523338,0.11245522843894974
0.07463855853970389,0.09852403187599093,0.15393762431735197,0.5470217031397404,0.33140076546455394,0.5056123443960105,0.12422035156490413,0.11152393157346158
0.07359537743560808,0.09770291319987216,0.1584845634522665,0.5646549482745217,0.3498907437813307,0.5108985168024224,0.12373194304190097,0.11061235360942832
0.07257996513894177,0.09691675475172024,0.16317566320188237,0.582193622733532,0.3694792130688624,0.5167989224990148,0.12329908060656639,0.10966034411894761
0.07165226882251564,0.09631857321971364,0.16831436976320446,0.5994310110692931,0.3894977896578565,0.5227997840015685,0.12292645428535404,0.10869063707436771
0.07084280207464466,0.09597432281987264,0.17395650214625044,0.6164237380577167,0.4088253314363787,0.5290580912748029,0.12274552526803889,0.10777848323219888
0.07014052260730481,0.09582649931155625,0.1797604963520229,0.6331660303877519,0.4272860020122222,0.5364725903935079,0.12301557593578873,0.10702923743451326
0.06957488023210151,0.09589345323496964,0.185854120111747,0.6497662686343674,0.4450066250875326,0.5450661107347452,0.12385046673573086,0.10646997341636823
0.06912042543254673,0.09621927414597943,0.1927738383789169,0.6662614011539111,0.4621760870827218,0.5543044171309907,0.12511787049224493,0.10603280161451739
0.06877276515249817,0.09682582784845555,0.20067096424710415,0.6826400704568644,0.47914943302743757,0.5640636531515871,0.1266640491020176,0.10572621031988523
0.06860782558832632,0.09776050272580288,0.20938173778379657,0.6992124508452067,0.49634669978693874,0.5739707755291735,0.12830824644442715,0.105544820978042
0.06861782560811941,0.09894127792769553,0.21828739910017614,0.715793661871987,0.5145906698984585,0.5836554374021584,0.12985740890203526,0.10544993812153765
0.06870823592246099,0.1002359717010919,0.22684269086461278,0.7316987162743344,0.5340455665343536,0.5930042949426101,0.1312539971367242,0.10543120814576055
0.06878855750630579,0.10155815216972686,0.23522172811498054,0.7471154768257944,0.5536036619259969,0.6022502376876964,0.13262364032105634,0.10545191003836335
0.06886583718757039,0.10283848884054932,0.24371826278098388,0.7632470648751802,0.5724860765232828,0.6120039193495923,0.13436065837929903,0.10557048383626555
0.0690136780431496,0.10411099377853218,0.2522320685909277,0.780354396519164,0.591265563311034,0.6225347268408794,0.13662124437775028,0.10587616526888204
0.06923555696705833,0.10548844002012742,0.260874522642706,0.7974090901402587,0.6105569444467668,0.6334376807835728,0.1390060500949707,0.10627361080650834
0.06948792660223507,0.10697162331978292,0.26994593046354987,0.8141696455339521,0.6302391188367423,0.6445389919635262,0.14130679639657076,0.10666484565217597
0.06975584637939719,0.10852108704413137,0.27975319114149333,0.831414920254312,0.6501423830764139,0.6565681497610606,0.14365863405484805,0.10705644794158746
0.07001163807051415,0.11016588475195666,0.29068944595171214,0.8493679531807004,0.6699704759162385,0.6699546086874993,0.1460971880029459,0.1073945360068048
0.07026226772120406,0.11193371540231528,0.3027151325661677,0.8678669940152831,0.6898813560781237,0.6846465195163619,0.148696567051213,0.10768110897681016
0.07054114745855339,0.11383089761644798,0.31547043031429467,0.8867300505811155,0.7101664430898255,0.7006264556381315,0.1514873885223199,0.10798498838177645
0.07079997871805069,0.11574968933040204,0.3285034753496701,0.9049402577559476,0.7302282711920123,0.7171276773692049,0.1542914898187227,0.1082650130466214
0.07101932498533362,0.11758700969161587,0.3414486315615184,0.921799694041599,0.7498766532191544,0.7335900962534725,0.15699192544668497,0.10848851949397677
0.07126754990961978,0.11933793937582363,0.3542169891028751,0.9376516502012726,0.7694315125573841,0.7504875797575071,0.15956384942014903,0.10871792160387445
0.07155653079361161,0.12100454219333766,0.3669108792257398,0.9533135461540719,0.7885972243158227,0.76839332995744,0.16203042121708167,0.1089661136076852
0.07183072990737552,0.12260893154350577,0.37940093569473704,0.9690192150057918,0.8075192871369133,0.7870857815307315,0.16452755682095116,0.10921198148972211
0.07211726870713044,0.1241990637383532,0.3913296024487806,0.9841364839446526,0.826838558615396,0.8053159151667321,0.1671183767574264,0.10951556246532403
0.0725022517244449,0.1258007669868355,0.40248912256748925,0.9987298155421465,0.8463854069164961,0.8221903036169912,0.16964921758731188,0.10991417117243446
0.07296097139658052,0.12740530615706638,0.4130224937058119,1.0130418976533921,0.8659304925289735,0.8378518607496439,0.17199989524211412,0.11033643368248973
0.07343629290187793,0.1290578106091341,0.423314484176597,1.0265630024299206,0.8852210141246167,0.8530000809809656,0.17418265547590178,0.11072742678750672
0.07396046566384316,0.13079471628549189,0.4333790191443756,1.0390135811381784,0.9039351705070888,0.8686923422060284,0.17635646499203714,0.11115499140341893
0.07453754668525106,0.13254381900617598,0.4430357455607982,1.0507624323731881,0.9226549331220493,0.8857189108403973,0.178673391026744,0.11164386929704162
0.07513793581617834,0.13424272649810118,0.45227969042468535,1.062096146030578,0.9418500602594104,0.9035306619797165,0.18100463024342894,0.11208394877201214
0.07578678435105855,0.13594546750773848,0.4613471897066736,1.0732692007891729,0.9615682800580674,0.9208393768529816,0.18320021898991645,0.11245018174296331
0.07646798809220628,0.1377104051440027,0.4705380249275528,1.0848795272956042,0.9818146258300126,0.9374161967119775,0.1852305026653486,0.11279222541191014
0.07713268166354853,0.1395130747730546,0.4796708143422471,1.097224526050987,1.0018780051925709,0.953544361327091,0.1871073906651637,0.11311748668979175
0.0778344284502912,0.1413902120635694,0.48843839534609423,1.1097388481684707,1.0210115443246242,0.9688466975055791,0.18892934034388043,0.11345312467519185
0.07859768458075067,0.14333676866847564,0.49681474424315847,1.1213801027135468,1.0391368891406099,0.9832574018820142,0.19077052563837876,0.11381842225992654
0.07937223853087927,0.1452943609702274,0.5049023790700431,1.1317671479017246,1.0565544773148536,0.9974699042952908,0.19255478759699587,0.11417830810461747
0.0801568515565514,0.14726730542169209,0.5126324926877804,1.1411517236096356,1.0736593491651163,1.012294783015445,0.1942494475368271,0.1144925542119003
0.08096370094180107,0.14928645989362355,0.520280596887998,1.1502904163138765,1.09030148953953,1.028072213331327,0.195916936733444,0.1147695264865462
0.08182447118531634,0.15137461072019068,0.5283242604402777,1.160141179803792,1.1060102373778118,1.0441638907397381,0.19750333843986687,0.11505737899223892
0.08286970714898577,0.15353342955124075,0.5363841725758353,1.1703359480642406,1.1207775589234692,1.0602598136554573,0.19901733080481632,0.11550245200209784
0.08416392901776269,0.15577113312155993,0.5440373167030826,1.1803016812744607,1.1346702239201445,1.0764044315850565,0.2005809459836372,0.1161844010053248
0.08554129034564013,0.15801527348892827,0.5514343858788615,1.1899451078180945,1.1480538129055122,1.0921855705291887,0.20217714607229725,0.11690506714781668
0.08684975745172,0.1602767762677608,0.5592212183786819,1.1988296508713048,1.1617331559934014,1.1079514598810092,0.20378291615863706,0.11749492331424342
0.08811111884652022,0.16267973674360095,0.5682291609620477,1.2072337775185977,1.1755685330444399,1.1238680621334014,0.20536954628059798,0.11798582837332643
0.08940643525686004,0.16521568777998627,0.5782159313184176,1.2154510613167409,1.1887909793582292,1.1392849817042503,0.20687616281320997,0.11848189775105647
0.09079984011870099,0.16794994729276821,0.5886479629034316,1.2234750025516712,1.2012338444609783,1.1541689331887501,0.20830478831076096,0.11905597359739255
0.09230578348750926,0.17099829090029564,0.5996429258313962,1.2318010171837772,1.2131663735969869,1.1684752202818065,0.20963068891355416,0.1197709713458482
0.09385774737397949,0.17419703569009984,0.6106509237714277,1.2407288657768534,1.2248064885740655,1.1815532248863454,0.21088379241199157,0.1206334486722415
0.09542548975691834,0.17744964019186477,0.6212061178683137,1.2507787097654455,1.2364565267846912,1.1937378796468798,0.21223320136273652,0.12152250276903323
0.09705361308465058,0.1807974253574209,0.6314985157078125,1.262166212991481,1.2481850410827797,1.206025706107485,0.21374697341224913,0.12238931870347199
0.09871786371167966,0.18419290718720746,0.6416766917868648,1.274073424930394,1.259128181877457,1.2180526880774165,0.21526941350302273,0.1232206541005665
0.10042175090475061,0.18767085056336183,0.6520567091825993,1.2860183063711284,1.2694098030216967,1.229544425495576,0.21671844368534351,0.1240974796624803
0.10224882461394075,0.19125105809440562,0.6624125107904623,1.2981080354893335,1.2799312714253408,1.2412752823556084,0.2182362601747958,0.12537132760443956
0.10419865363720911,0.19480528211959444,0.6722203326046958,1.3105252244997354,1.2900836424371125,1.252996219570944,0.21999224322415445,0.1271641200115958
0.10624396318196709,0.19831116254760617,0.6819357919598553,1.3234576057282403,1.2995455424531202,1.263907409806734,0.22188743029686867,0.12917745051877413
0.10842543107893331,0.2019278784090512,0.692202060484771,1.3368034458847697,1.3093541069735797,1.2741872845770013,0.2237601654703375,0.1311657832137407
0.11071497645620537,0.20572066699067007,0.7031323816019355,1.3500103885839414,1.3196118348191752,1.283960329233962,0.22562967427766997,0.13315502861773537
0.11299871698753898,0.2096247274908372,0.71464054382043,1.362256032932395,1.329012286579724,1.2931121003711628,0.22742743249195602,0.1352368299362918
0.11522789844541123,0.21366488509047046,0.7267839292521013,1.3733430085930027,1.3370821942248403,1.3018212237000153,0.22902778938057264,0.1372914939628366
0.1174495413131147,0.21798510194093723,0.7400380282368272,1.3834914840413834,1.3443529760275121,1.3100116095600889,0.230390976557904,0.13917781130024526
0.1197621176477963,0.22278967328989585,0.7544220087099739,1.392491750991604,1.3510729760697122,1.3174438268221569,0.23159284401885114,0.14088121869522935
0.12215944317039922,0.22801279663961996,0.7695252137451487,1.4003716452718142,1.3572061539373568,1.3237892918048315,0.232859878285626,0.14242807807269497
0.12449511549092153,0.2331431660140515,0.7845864102128005,1.4073327095235073,1.362872378884956,1.328995501267114,0.23426156970328468,0.14393067430621784
0.12668932743851766,0.23790573499571144,0.7988373702082286,1.413220945542185,1.3683806545733725,1.3337421024461398,0.23567036614887982,0.14549645551482596
0.1287929096682923,0.24253252536774714,0.8128879092018135,1.4182912403150407,1.3742406595229921,1.3385125024776996,0.23709128471508228,0.1472281395162666
0.13089468714403815,0.24728572291009482,0.8275889739850711,1.4229954586264777,1.3809262120190935,1.3432342020928498,0.23853579872117178,0.14919707640443008
0.13301276702411344,0.25208170002732144,0.8423565398730476,1.4270909009334865,1.3881208582061297,1.3478512714997646,0.23997474439339278,0.15149134447035592
0.1350574785910958,0.25666658716311636,0.8565382941858217,1.430145423632953,1.395307454119557,1.3521899652489273,0.2414404042715513,0.15425505394718508
0.13701666421528552,0.26099832941698753,0.870112572791046,1.4323818330792037,1.4023724361285288,1.3560977288915053,0.2428967726826504,0.15746513645194174
0.13899912433732098,0.26513054719306317,0.8828319170380263,1.4342346796044858,1.4093142683368614,1.3599773017095487,0.24435621927719892,0.16106566535336037
0.14110222290650884,0.2692685003233296,0.8950421253144233,1.435879305537547,1.4162318897982207,1.364534874431982,0.2459576063231352,0.16494927980171228
0.1433721746451408,0.2736954406688802,0.9075157333931594,1.4378847917465662,1.423012698834191,1.370030765612337,0.24787374033518145,0.16893277970431225
0.14566581815144056,0.27831430452961675,0.9201356490564524,1.4402402063558246,1.4291747056728719,1.375857273299724,0.2501826970202577,0.1730012926374104
0.1478595623272182,0.28293177163491,0.9322080492225718,1.442192613805105,1.4343577527720228,1.381111859047719,0.25273145751595416,0.1771873120824718
0.14998906028078923,0.28746989931714445,0.9432636830715502,1.4438245019205473,1.4388801882955764,1.3860817416796487,0.255493768256375,0.18144157457894106
0.1520483620682199,0.29189432433250223,0.9532424586622601,1.4455426951047008,1.443715759359488,1.391804132179953,0.25861145924356294,0.18567677586595963
0.1540585878947639,0.29639292299685654,0.9626361833062284,1.447662709849644,1.4498290250683845,1.3988024248685296,0.26203264725610104,0.1897960520989625
0.15603998753891235,0.3009848727027194,0.9717487081530964,1.4500112607833422,1.4570716421385779,1.4067068634314064,0.2656204933157285,0.19378040619378542
0.1579250412241879,0.305347443677766,0.9802224140270626,1.4517671487356367,1.4646052841923525,1.41442743002264,0.26921051429465437,0.19768534236400856
0.15964257039709293,0.3093393011032089,0.987856244342916,1.4529811772795613,1.4719687581295875,1.4213562395004835,0.2726587447056413,0.2015038558997868
0.16117813902976313,0.3131064200262308,0.9949066494694244,1.4541103085851699,1.4786542173517232,1.4272736290913537,0.2758677278868525,0.20516247038430258
0.16255822982719215,0.3168287646506968,1.0020273418478052,1.4551705137783708,1.4847047293636624,1.4318902267698443,0.2788715063913624,0.20863117251287747
0.1638283826197431,0.3204511993836149,1.0092551941573547,1.4564178308316393,1.4906234339519002,1.4353182767268937,0.28185661846540155,0.21194829613842162
0.1650322643823084,0.3237873619958854,1.0159367199932885,1.4576222878596425,1.4963902869884012,1.4379738467912249,0.2847942495315856,0.21513728369661608
0.16619165060161026,0.3268932736482612,1.021975548888224,1.4581494189313269,1.5020598074878189,1.440429504601219,0.2876368251655749,0.2181738809292568
0.16737421511839795,0.32995646240331983,1.0274539535716414,1.457907802056533,1.5082124296146715,1.4432398150674162,0.29055956660934007,0.2210350347021665
0.16862461067750348,0.332955769665373,1.0324979742355065,1.457165085855452,1.5151889470622257,1.4465003143342785,0.29366314369745516,0.22378578046897415
0.16983170714775875,0.33573729890411896,1.0374893454101377,1.4564251520060432,1.5223852008382666,1.4498339354779644,0.29680966854324964,0.2265151778900625
0.17095610504888165,0.33842148978324277,1.042672916501731,1.4562635860129138,1.5291896445670534,1.4526860342521428,0.29976022863102314,0.22926832130599933
0.17208723002609538,0.3412172454334475,1.048362942554463,1.4566152943921946,1.535886859736416,1.4549009475215116,0.3024670036580259,0.23209500845200304
0.17320363985397513,0.34399667136164275,1.0544249462742827,1.4572236241796483,1.5432907267770584,1.4564908547597586,0.30496471822471405,0.23489571104383483
0.17423803663490414,0.34651041353575407,1.0599677363627107,1.4589861260124561,1.5516709431261009,1.4573543483484053,0.3072132442670153,0.2375017055214074
0.17515955593956295,0.3487007311958129,1.0645739377056755,1.461957917500107,1.5604287414280835,1.4577227405303763,0.30942181841797234,0.23992562321626903
0.17599227120241745,0.35063973815748006,1.0687143910325905,1.4646862138688161,1.5690779274280389,1.4576305628417032,0.3119109704014272,0.24222652401126918
0.17683284094520807,0.3524100289678495,1.0727931240367987,1.4668647226803624,1.5778488791751377,1.4566967616986577,0.31457918681502073,0.24438747453325677
0.1777068561412383,0.3540172263077437,1.076688533925525,1.468755926818636,1.5871891682193888,1.455212878745258,0.3171152422477266,0.2464927016964548
0.1785518459808627,0.3553331468903904,1.0804449422025424,1.4699425845862557,1.5968109695444013,1.4537859291195194,0.31944220008043395,0.24868299960770693
0.17933482624485758,0.3563892359578503,1.0844391762264507,1.4703271342071031,1.605857016158053,1.4520872045840572,0.3216070161216398,0.2509057551331682
0.18005773572391315,0.3573161124204959,1.0885166397495134,1.4701245818560664,1.6141296443298618,1.4499228909089266,0.32368819196131615,0.25302369277271847
0.18068905717978986,0.3580917527264147,1.0924491429060366,1.469741735763987,1.6217948823241968,1.4475894345130966,0.32579432831894956,0.25497246325120804
0.18117867355750664,0.35867517853271597,1.0964397671840593,1.469808594182948,1.6284037079967397,1.4448557441714038,0.3278688195287642,0.25673079272137406
0.18152558419126186,0.35899394806474444,1.1005289358392154,1.4703724096021549,1.6335410038617129,1.4415412731589292,0.3297505750841606,0.25830525949436445
0.18176908539867057,0.359045882651234,1.1046749888930179,1.4708427356673155,1.637586683262034,1.4376945178410994,0.33141272408243516,0.25978925092369654
0.18194017970491605,0.35892944522225,1.1084368645895302,1.4709022552132798,1.6416406587454782,1.4339440590067383,0.3329835522929761,0.2612588115317253
0.1820752782378063,0.35870555265263104,1.1113662951773078,1.4706222505518722,1.6465410861623597,1.4313791433190373,0.3345056273719333,0.26261286034971265
0.1821825007664437,0.35839914856415456,1.113603602748277,1.46975030831772,1.6519589547454063,1.4298704962442115,0.33585925131018135,0.26380162221447395
0.18218940966738265,0.3579739986928038,1.1155110021536834,1.468346423516788,1.657084291162526,1.4286114739617042,0.3370103218125677,0.26489799175703316
0.18204686989881647,0.35740892993222734,1.1174887738574688,1.4665219851824214,1.6614100411317017,1.4272715184025186,0.33810024890449536,0.26587149576246655
0.181774885471814,0.35671056818077235,1.1195520081883148,1.4638423855219664,1.6646324777974313,1.4255345144719502,0.33927104243576556,0.26663293030126867
0.18141277392966115,0.3559054379479169,1.1214743628467674,1.4605145225387703,1.6665289978767468,1.423118525462414,0.3404378264720388,0.267177404108029
0.18097817336930866,0.35507250179679023,1.1231865585390803,1.4570578548654494,1.6674763156595698,1.420229224860152,0.3414124420796279,0.2675205057979274
0.18046796752194777,0.354220458171226,1.1248765957474862,1.4538223007337636,1.6681031293778266,1.4172643839143457,0.34213543972130034,0.2676572831117358
0.17989262044072554,0.3532640426016876,1.1268580456199457,1.4517708384342027,1.6680750921956407,1.4142568915119451,0.3426504855514099,0.26764337177752984
0.17930900601822986,0.3520950528468818,1.129243364598786,1.4512685214020116,1.6668256386747935,1.4115324304694252,0.3431800696798996,0.26769928413308575
0.17888519581882784,0.3507840287716953,1.13177869074912,1.451466257799413,1.6646831774664075,1.4100307370663332,0.34405734675332994,0.268082684129393
0.17871494381238598,0.34951892913750926,1.1338198919713791,1.4514040873500957,1.662771708382502,1.4098806448676575,0.3452596744054252,0.2687254825762034
0.1787339080263382,0.34838589701382167,1.135038800853203,1.4505718602483684,1.6615309976837414,1.4099270666789103,0.3464240967469193,0.26936172013214604
0.17889373178579376,0.3474070309189772,1.1355234620509451,1.4490573314205497,1.6599903749693459,1.4094125910421818,0.3473773020200085,0.26988409239633276
0.1791012221492509,0.3464227994515821,1.1351448524605454,1.446864869555536,1.6575024512254741,1.4084155768249758,0.3481409205913605,0.27027698535618994
0.17928724784119027,0.34532072476322256,1.1337536454639774,1.4437586136469434,1.6546791007060555,1.4066771458594696,0.34872913993115107,0.2704988447141526
0.17945256204138452,0.34426076881515716,1.1319501221373043,1.4403562647726809,1.6523800558125976,1.404204451919316,0.34920918794418887,0.270590318541422
0.17957784733237162,0.34339590154695376,1.1307501485866356,1.4379041903578624,1.6507585865391352,1.4014329478507928,0.34959198785705864,0.2707241334552766
0.17965135036013438,0.34264493460040324,1.1300484238058257,1.4367178178592506,1.649292052758743,1.3981977737919338,0.3497409911087256,0.27093175004872405
0.1796351347041016,0.34177632085602827,1.1289213693960962,1.4362084135602948,1.647045789763169,1.394408541269505,0.3496060402020928,0.27104261187790524
0.17950637104702102,0.34070909399839827,1.1270408871029787,1.4356650833864892,1.6434407425596942,1.3902267049724617,0.3492464067064238,0.2709872710235388
0.1792633886701846,0.33945960131679487,1.1245284510218547,1.4345282060340716,1.6387065882110898,1.385746908809158,0.34873906124563286,0.27078637537955935
0.17891807163735304,0.33803028376514227,1.1214607508167136,1.4326174078852962,1.6337059645382062,1.3810934012436145,0.34812434241905577,0.27042638631148147
0.17853537400530806,0.33652393914409323,1.1182058615551567,1.4302957771994407,1.6294514862688854,1.376057587312582,0.3473072204380425,0.2699212509352292
0.17815071943833188,0.33505903026697725,1.1150692421556558,1.4281249709201702,1.6258880922778378,1.3705539671358788,0.34623042033723567,0.26929782231413446
0.1777378205204843,0.33363517076475585,1.112015351480004,1.4265752332925268,1.62199298364506,1.364594811338886,0.3449330101713848,0.26853509910168877
0.17727824541253956,0.33219177784071235,1.1092708652195393,1.4263364682225799,1.6176974185443074,1.3581120656515557,0.3434458872720115,0.2676264989810212
0.176761094272268,0.3306709202620144,1.1067915576515581,1.4273987378542323,1.6134909632255694,1.351087940363861,0.34179210348759853,0.26657923842168935
0.1761826824646404,0.3290172590614053,1.1042072571744608,1.4285946100610172,1.608825558129674,1.3434390819671815,0.3399938698184951,0.265380296297387
0.17555960248101968,0.32725821976285324,1.1016988561790595,1.4289677189393215,1.6031774034376702,1.3353069988166693,0.3380658855596364,0.2640374216333928
0.174881025071791,0.32545356758443955,1.0994192549993733,1.4284999709125272,1.5966280885376214,1.326747284907548,0.3359955926779781,0.2625982813933888
0.17412995921179247,0.3235669112458918,1.096906066764235,1.4278501518466604,1.589330072751026,1.317773415449744,0.33377780221046277,0.2611018780941907
0.1733102800887569,0.3215367762513904,1.093697165886892,1.427247437725322,1.5813563674051312,1.3085591428103376,0.3314478088116675,0.2595254010431522
0.1724324466848779,0.3193981014382083,1.0900331480485275,1.4266569336521084,1.572690545954603,1.2989566609664613,0.32901942382257937,0.25790059575572327
0.17151989152597308,0.31722452784334304,1.0863719153538876,1.4266001835405264,1.563511456555517,1.288804903930374,0.326465837660017,0.25627124677008367
0.17058837641393212,0.31501967048616436,1.0824895590165053,1.4270741050568025,1.5538703236334706,1.2782512032766726,0.3237615266604629,0.25458563693798053
0.16962625268872852,0.3127535877223428,1.0781654280291937,1.4279147745849816,1.5435558394507418,1.267751115987117,0.32093570947335043,0.2528144087269777
0.16860234958650247,0.31037764030811976,1.0735298702329399,1.4290586413130137,1.5325470497666078,1.2577202925891815,0.3180498820902274,0.2509496208965818
0.167520340324963,0.3078988963829169,1.0686343241979064,1.4299832925599467,1.5209449284168783,1.24820819830668,0.3151629260489549,0.24901051144583822
0.16641722436579603,0.3053710178532896,1.0635750458441822,1.430516841170946,1.5088800638802815,1.2391145569956075,0.312317793293595,0.24706904174702396
0.16528829796241215,0.3027517787549198,1.058290489291229,1.4305353628844917,1.4967719984717671,1.2299886905851865,0.30946192549889145,0.24514056064125342
0.16410902883165768,0.2999875044031651,1.0525949675791777,1.4299007580950351,1.484828191777213,1.2204262807445294,0.3065383727410231,0.24317956383847458
0.1628760572383375,0.29708716622742903,1.0464316069560031,1.428715567445198,1.472645193497274,1.2104354720803054,0.3035395269550086,0.24115592779790457
0.16157953534115227,0.2940795350151523,1.0398534321287825,1.4271185228186527,1.4598640605401187,1.200057898626977,0.30047155529330394,0.23905427041957067
0.16021010460354343,0.2910056067740005,1.0329650516555762,1.4254366176103954,1.446636786228618,1.189360502370243,0.2973537955515055,0.2368532674234912
0.1587789414278127,0.28789128807312975,1.0257999681334158,1.4237152790463528,1.4332429086185463,1.1788756418018698,0.29420479324292315,0.2345526749787835
0.15729679612963834,0.2847547127177135,1.0183838094446327,1.421496551761748,1.4195354497573698,1.1689385010733806,0.2910757478944704,0.23218578576854146
0.15580074489206858,0.2816199339259463,1.0106811585877633,1.4183696054619335,1.4056014439976225,1.158879648463378,0.28794206932709127,0.2298045675659846
0.15433295208298958,0.27846315623811,1.0025848687483316,1.4144437864148232,1.3919856930514336,1.1484265882749292,0.2847735544794378,0.22743199983311657
0.15286017698457358,0.27524826758792226,0.9941265484347123,1.409931435628525,1.3785671646988666,1.137927468881706,0.28163494979440085,0.22503656744437098
0.15132388439188246,0.27196083917159614,0.9853033523123144,1.4046350755618862,1.3647150774603003,1.127314196627562,0.2785212996547016,0.22258146092589426
0.1497082598717369,0.26858713924062544,0.9761195969127847,1.3985002863154987,1.3501808354432625,1.1164816314387345,0.27538103802493324,0.22005827183638055
0.1480249966345753,0.26512748797574187,0.9666867345504706,1.3920240705684672,1.3352621807273093,1.1055166206719111,0.27220498115656977,0.21747239477213756
0.1463054029102011,0.26160233248676334,0.957078184958047,1.385481584091854,1.3205718994949045,1.0943485885393764,0.2690311806300652,0.21483573637553555
0.14458614741676787,0.2580513524298725,0.9473175452523322,1.3784140063310362,1.3061744235906076,1.082749759322373,0.26588266035744024,0.21217310680446835
0.14286887528748607,0.2544991561529599,0.9373874182146348,1.3703963342362586,1.2916430275504602,1.070636390587458,0.26270787381408073,0.20951494908623935
