-3,-5,-14,-43,-1,-1,-1,3,1652970126.0550826
-2,0,5,17,26,-3,-8,-2,1652970126.0550826
-2,-2,2,8,-21,-3,-2,2,1652970126.062066
-1,-2,-9,-24,-14,2,1,-5,1652970126.0700448
-1,0,9,24,-8,1,1,3,1652970126.0919523
0,0,-1,0,10,3,3,0,1652970126.0939815
-2,-3,-8,-21,-1,-1,2,4,1652970126.0939815
-1,1,1,17,7,-2,-2,-9,1652970126.0939815
1,1,-1,-17,-10,1,-8,-10,1652970126.1009288
-2,-2,-3,1,4,1,-3,2,1652970126.1009288
-2,-3,3,11,-5,4,8,0,1652970126.1089385
-1,0,-1,0,-7,2,9,-9,1652970126.1089385
2,2,-2,3,-2,-5,-8,24,1652970126.1149232
-3,-1,4,23,26,1,-3,-14,1652970126.1149232
-2,-3,-12,-37,-17,-3,-4,-6,1652970126.1328757
0,-3,0,35,4,-3,-3,1,1652970126.1328757
0,0,-1,-63,-32,-4,0,-4,1652970126.141853
-1,-1,0,10,-8,-1,0,2,1652970126.141853
-2,-1,5,32,7,-1,-5,5,1652970126.14584
-3,-2,-3,-11,17,-4,1,-8,1652970126.14584
0,2,-1,26,-20,-3,-3,2,1652970126.1617973
-2,-2,-3,-40,-48,-2,-1,2,1652970126.1617973
0,-2,2,1,27,-1,-4,0,1652970126.1617973
-2,-1,1,14,-19,-4,-7,2,1652970126.1617973
1,1,3,30,39,-3,1,-3,1652970126.1797192
3,0,-8,-50,23,10,4,5,1652970126.1797192
-1,1,-2,4,-15,-4,0,-2,1652970126.1876445
1,2,8,6,-30,-5,-1,0,1652970126.1876445
-2,-4,-9,11,7,1,0,-1,1652970126.2015734
1,0,1,-13,9,0,2,13,1652970126.2015734
-4,-3,-1,3,7,0,-6,-30,1652970126.2015734
-1,0,-1,-20,-2,3,-4,1,1652970126.2015734
0,0,3,15,-4,-1,4,-3,1652970126.2255404
-1,0,0,17,-20,-4,2,4,1652970126.2255404
3,1,-4,-37,-19,-1,-2,7,1652970126.2255404
-2,0,2,56,7,0,-1,-2,1652970126.2255404
0,2,2,7,8,3,0,-4,1652970126.232524
-3,-2,-4,7,23,-1,0,-8,1652970126.2405024
1,-2,-2,-11,13,2,2,9,1652970126.2454891
-1,-4,-1,26,16,3,-2,-3,1652970126.2454891
-1,-3,-2,-32,-41,-4,-2,3,1652970126.261447
1,1,5,21,-6,-5,-1,-4,1652970126.261447
0,1,-7,-37,22,6,2,0,1652970126.261447
0,0,-4,-11,-33,-3,1,3,1652970126.261447
-1,-2,-1,12,34,0,-2,-3,1652970126.2803957
-1,0,4,29,-45,-4,2,-1,1652970126.2803957
-2,0,4,-9,-4,-4,-1,3,1652970126.2859666
-3,-2,-13,-36,6,0,-6,-1,1652970126.2879643
1,-1,0,-5,-2,2,3,13,1652970126.3068666
-3,-2,-1,-5,-4,-1,-3,-28,1652970126.3068666
1,0,4,27,4,1,1,4,1652970126.3088949
0,1,-2,8,12,-2,1,-3,1652970126.3088949
-1,-2,-3,-65,-17,-1,1,0,1652970126.3248277
1,-1,0,12,-8,-2,-2,7,1652970126.3248277
-2,-2,-5,13,21,1,1,-1,1652970126.3268456
-2,-3,-2,6,2,-3,1,-2,1652970126.3268456
0,-2,-1,9,20,-2,-3,-3,1652970126.3408105
-2,2,3,-18,-8,-1,-1,4,1652970126.3408105
0,1,2,5,-31,-3,-1,2,1652970126.3467913
-1,-2,-5,-39,-6,-4,-3,-3,1652970126.3467913
-2,1,1,8,-22,0,2,0,1652970126.3707275
-3,-6,-7,-12,54,3,-4,-2,1652970126.3707275
-1,0,-1,21,4,2,0,1,1652970126.3707275
-3,-1,-2,-53,-7,-2,-1,-1,1652970126.3707275
0,-1,-4,26,-23,-7,-2,-4,1652970126.379704
-1,-3,-9,-31,-15,-4,-3,0,1652970126.379704
-2,-4,-10,-4,43,5,-1,-2,1652970126.379704
2,6,20,84,-17,2,1,1,1652970126.379704
-2,0,-4,-4,15,2,0,-3,1652970126.401618
-2,1,-4,-5,-19,-3,1,3,1652970126.401618
-1,-1,5,-20,-5,-1,0,-1,1652970126.401618
-1,-2,-9,5,-8,-2,-2,-3,1652970126.401618
1,0,13,16,-2,-2,-2,-1,1652970126.4255493
3,-1,-2,21,16,7,4,1,1652970126.4255493
1,2,6,11,-21,-4,-4,-1,1652970126.4255493
-1,-5,-14,-39,0,2,-4,-2,1652970126.4255493
0,0,4,52,15,5,-1,1,1652970126.440548
1,-5,-7,-26,-10,0,0,0,1652970126.440548
0,-2,-3,3,-1,-2,3,10,1652970126.4464936
-3,-1,3,15,-4,1,2,-15,1652970126.4464936
-1,0,-6,-55,-3,-3,1,0,1652970126.4654877
0,3,6,38,-8,-1,0,0,1652970126.4654877
0,3,12,41,7,-5,-2,-4,1652970126.4654877
-1,-2,-10,-32,-20,1,0,6,1652970126.4654877
-1,0,-4,-2,20,-4,-1,-2,1652970126.5061524
1,0,3,-58,-14,1,0,-1,1652970126.5061524
-3,-2,-11,-60,-9,-3,-3,0,1652970126.5061524
0,-1,11,98,48,5,1,4,1652970126.5061524
-3,-2,-2,8,-13,-4,-1,-6,1652970126.5061524
-1,3,-1,45,15,-3,0,3,1652970126.5061524
0,2,5,-7,-3,-6,-3,-3,1652970126.5061524
-2,-5,-10,-68,-4,-4,-2,-1,1652970126.5061524
-1,-2,-5,4,10,1,-2,0,1652970126.5251024
1,0,2,7,0,-3,0,0,1652970126.5271018
-2,-1,-5,-16,-21,0,5,-2,1652970126.5271018
-1,1,19,56,5,0,0,0,1652970126.5271018
0,0,4,-25,-7,-2,-2,0,1652970126.592543
-2,-2,-4,8,3,5,-1,-2,1652970126.592543
-2,-3,-4,19,38,0,-2,-3,1652970126.592543
2,0,-2,7,-30,-5,-1,3,1652970126.592543
-2,-4,-14,-55,-20,2,3,1,1652970126.592543
1,6,11,11,36,0,-4,-1,1652970126.592543
0,-2,-8,-16,-16,0,-1,-4,1652970126.592543
2,1,0,7,7,3,3,2,1652970126.592543
-1,2,4,-29,7,-2,-5,-2,1652970126.6391692
1,-2,-4,20,49,5,3,0,1652970126.6391692
-5,-6,-10,-55,-73,-10,-5,-4,1652970126.6391692
0,1,6,44,8,0,0,1,1652970126.6391692
0,-1,2,27,-10,3,3,8,1652970126.661126
-1,0,0,-6,0,-4,-2,5,1652970126.661126
8,-4,5,21,16,2,1,-4,1652970126.661126
-4,0,-13,-60,-27,1,8,3,1652970126.661126
0,2,-2,-1,1,4,1,-12,1652970126.661126
2,1,2,5,-5,-8,-1,5,1652970126.661126
-3,2,4,28,-4,2,-2,-1,1652970126.661126
2,-1,1,-1,14,-2,-3,-1,1652970126.661126
1,-2,-1,13,33,5,3,6,1652970126.661126
-4,-1,-5,-44,-21,-4,-2,-5,1652970126.661126
2,1,-2,55,-12,0,1,2,1652970126.661126
-1,-2,-5,-96,16,-2,0,0,1652970126.661126
-3,-2,-6,31,-2,1,-4,-1,1652970126.6730762
-1,-3,0,22,-6,-4,-1,-3,1652970126.6730762
-1,-2,-1,-4,-3,-2,0,-1,1652970126.6730762
0,-1,-2,33,64,6,-2,-1,1652970126.6730762
0,0,-8,-5,-53,-12,1,-2,1652970126.685642
-1,-3,-2,-24,-12,3,0,-4,1652970126.685642
-1,1,-4,-21,-2,-1,0,1,1652970126.685642
-1,0,9,8,-28,4,0,-2,1652970126.685642
-1,-2,5,-6,20,-1,-5,-4,1652970126.70954
1,2,-4,20,-15,3,1,0,1652970126.70954
0,-2,-3,-22,12,-2,2,1,1652970126.70954
-1,-1,-4,-16,-10,-2,-4,-2,1652970126.70954
-1,-1,11,55,44,3,-1,0,1652970126.7315118
0,-4,-7,0,-25,-7,-2,5,1652970126.7334993
-3,-2,0,-6,1,6,0,2,1652970126.7334993
1,-1,-6,-34,-53,-10,0,-4,1652970126.7334993
-2,-3,-1,6,43,5,1,-2,1652970126.7414887
-3,0,-1,2,-1,0,-1,-4,1652970126.7414887
0,1,7,21,-6,1,0,5,1652970126.748464
-1,-2,-2,7,12,-8,-4,1,1652970126.748464
0,-3,-3,-3,-41,-4,0,-2,1652970126.7624273
2,3,2,-1,5,2,3,4,1652970126.7624273
-3,0,-2,-14,20,-1,-4,-5,1652970126.7624273
0,0,-2,13,-2,0,-2,-1,1652970126.7624273
1,1,2,5,-1,-1,-2,-2,1652970126.7863653
-3,-2,-2,-17,-16,-3,-4,-3,1652970126.7863653
-1,0,-1,-6,1,-2,-1,-1,1652970126.7863653
-3,-3,-5,29,7,-1,-2,-2,1652970126.7863653
2,3,1,-19,-14,-4,-1,2,1652970126.800295
2,-2,-5,-5,4,-2,-1,-1,1652970126.800295
1,2,7,-10,-3,-4,0,-3,1652970126.8073084
0,-2,6,53,16,2,0,2,1652970126.8073084
0,-3,5,-56,-22,1,1,1,1652970126.8252606
0,0,3,5,-10,-2,2,-1,1652970126.826259
-1,-3,-7,17,8,3,2,0,1652970126.826259
-2,-4,10,-47,24,-12,-9,-5,1652970126.826259
-2,3,1,-3,-14,1,-5,-3,1652970126.8452065
0,3,-3,22,12,1,2,-1,1652970126.8452065
-2,-2,-6,-62,-55,-18,-3,1,1652970126.8452065
0,-4,-6,60,37,34,2,1,1652970126.8452065
-1,-3,-7,9,-16,-8,1,-1,1652970126.8621697
0,-3,-2,-5,26,2,-1,2,1652970126.8621697
0,0,-5,10,25,-3,-4,4,1652970126.8701077
0,2,4,-2,-44,-6,1,-11,1652970126.8701077
0,-1,4,2,0,-4,-1,0,1652970126.883106
-3,-2,-4,-27,-6,5,2,-4,1652970126.883106
-1,-1,-3,-33,12,9,0,1,1652970126.883106
0,-1,-6,-15,4,-2,1,3,1652970126.883106
-2,0,7,84,17,2,2,-1,1652970126.904053
0,-1,5,-32,-15,-12,-4,1,1652970126.904053
-1,2,10,47,21,5,3,-4,1652970126.9140265
-3,-1,-7,-37,-23,-2,0,2,1652970126.9140265
-3,-5,-14,0,30,3,-2,-2,1652970126.921004
0,-5,-13,-15,-10,3,3,2,1652970126.921004
1,1,-7,5,-2,4,-1,-5,1652970126.9289813
2,6,11,1,-22,-7,0,1,1652970126.9289813
2,1,5,4,6,19,4,4,1652970126.9429455
-4,-3,-2,-20,-17,-10,5,-1,1652970126.9429455
-4,-8,-13,10,14,29,-1,-4,1652970126.9429455
-2,0,2,30,8,-39,-6,-2,1652970126.9429455
-7,-5,-15,-42,-29,-29,-7,-5,1652970126.96688
-2,-6,-26,-8,1,25,-5,-4,1652970126.96688
4,-1,7,6,22,5,10,1,1652970126.96688
1,10,35,24,15,7,-3,-1,1652970126.96688
4,3,24,19,-2,-5,-2,1,1652970126.977852
-5,-3,21,18,-1,-7,15,6,1652970126.977852
-5,-4,-7,-31,-11,-9,-15,2,1652970126.9877942
6,-16,-38,-30,17,13,-2,-3,1652970126.9877942
7,11,-7,37,12,1,0,9,1652970127.0057824
-2,4,1,-26,18,46,-4,-12,1652970127.0057824
-3,-1,0,-29,-50,-34,6,0,1652970127.012758
1,12,13,45,-5,-40,6,6,1652970127.012758
-6,-12,-37,-73,33,38,3,-6,1652970127.0267222
0,1,10,24,55,3,3,-2,1652970127.0267222
-6,-7,10,-45,-84,-4,-5,-2,1652970127.0267222
-12,-9,-15,-23,-41,-68,-29,-6,1652970127.0267222
16,4,-8,31,26,33,3,4,1652970127.0396876
-17,-3,3,-34,2,-17,-6,-1,1652970127.0396876
-5,-8,-15,7,12,9,22,-5,1652970127.0466673
3,2,-3,52,-42,-6,-26,4,1652970127.0466673
0,0,-4,-21,18,43,15,3,1652970127.0656166
10,-6,10,39,-8,-73,-11,-1,1652970127.0656166
-8,0,-3,-7,58,29,-1,-4,1652970127.0706046
6,17,18,-5,13,2,8,1,1652970127.0725985
-2,11,27,23,-20,-9,-6,-2,1652970127.0865612
2,-11,1,-7,-20,12,-7,-3,1652970127.0865612
3,11,16,24,-6,-9,5,4,1652970127.0865612
-7,-28,-30,-50,40,32,0,-4,1652970127.0865612
-8,1,-53,-7,-36,1,-9,-9,1652970127.1034837
1,8,43,42,-9,-20,10,2,1652970127.1034837
5,2,2,27,32,-62,-16,-1,1652970127.1104965
1,9,44,-44,-41,24,6,-2,1652970127.1104965
-10,3,5,4,-40,-46,-1,-3,1652970127.1244597
10,-9,-27,39,27,53,5,5,1652970127.1244597
5,9,-23,-16,-52,-42,-12,-5,1652970127.1304514
-9,-15,15,22,65,22,12,-2,1652970127.1304514
-21,-22,-7,-36,-50,-35,-3,0,1652970127.1831775
7,-18,-18,-16,-21,0,-12,3,1652970127.1831775
-14,10,-36,-1,50,53,0,4,1652970127.1831775
14,-1,-16,-32,26,40,10,-4,1652970127.1831775
-6,0,25,31,12,-14,1,2,1652970127.1921048
7,49,41,24,-39,-40,-6,-5,1652970127.1921048
13,-8,21,15,-30,-24,-4,6,1652970127.1921048
-9,4,-21,-44,10,18,4,2,1652970127.1921048
-2,-14,-9,42,23,-44,-6,-7,1652970127.1921048
-4,-9,-13,31,-63,-19,-8,-2,1652970127.1921048
-3,-18,-22,-47,46,42,6,-6,1652970127.2261498
1,-2,-4,1,-27,13,18,7,1652970127.2261498
3,-2,-8,-26,-7,-46,-19,-7,1652970127.2261498
-10,-5,-47,-74,-24,-13,-12,-6,1652970127.2261498
22,32,77,79,20,10,-9,4,1652970127.2261498
-25,-40,-20,0,-14,-1,9,-13,1652970127.2261498
15,-40,22,8,49,51,2,3,1652970127.2261498
-8,47,-26,25,31,11,4,-2,1652970127.2261498
-8,22,-25,-83,-34,-9,-5,2,1652970127.2261498
44,12,-1,-18,-11,-3,5,7,1652970127.2261498
13,29,11,49,49,27,7,1,1652970127.2401462
-15,-16,25,-20,26,5,1,0,1652970127.2401462
13,-7,-29,62,-30,-9,-1,3,1652970127.2581067
-3,4,18,20,-37,-44,2,4,1652970127.2581067
-12,-34,6,-40,70,98,10,-9,1652970127.2650783
-4,1,-20,-10,26,23,11,-2,1652970127.2650783
-20,-16,26,46,-33,-5,1,-8,1652970127.2650783
-13,-16,-15,-31,30,27,-18,4,1652970127.2650783
26,41,-10,-8,-43,-48,11,4,1652970127.2860277
-38,-23,25,33,14,23,-33,-4,1652970127.2860277
62,-8,-14,-56,-8,-33,9,-1,1652970127.2930052
-70,15,-9,2,16,25,-11,-5,1652970127.2930052
17,36,47,17,-16,-8,0,8,1652970127.3039856
16,-17,-15,5,-16,1,8,-3,1652970127.3039856
4,22,-13,-36,-3,-26,-2,3,1652970127.3109562
9,-10,10,72,86,45,1,-2,1652970127.3109562
-9,-2,-23,-89,-60,-43,-10,-9,1652970127.3249197
1,-4,12,40,-25,-59,-10,-6,1652970127.3249197
-50,-73,5,-4,-28,16,3,3,1652970127.3249197
15,26,-17,-28,-57,-52,4,6,1652970127.3249197
-1,15,-14,-25,75,74,10,-2,1652970127.3488646
16,3,-3,6,3,-4,4,-8,1652970127.3488646
-4,10,15,-30,-12,-13,-15,-23,1652970127.3568347
4,-12,18,58,2,-22,-28,-31,1652970127.3568347
6,-17,1,-8,-78,-34,-20,6,1652970127.3638144
-63,-34,-5,9,46,25,60,52,1652970127.3638144
18,17,-1,24,21,17,17,18,1652970127.371803
40,-3,-9,-51,-19,-20,19,20,1652970127.371803
12,37,-4,3,-53,-19,-22,-37,1652970127.3857577
-4,21,15,54,-30,5,-8,-10,1652970127.3857577
-24,-7,-10,19,30,-12,-6,1,1652970127.3857577
-7,-10,3,38,12,20,5,-13,1652970127.3857577
-2,-21,-21,-69,1,-48,-6,13,1652970127.411686
11,-17,1,-81,-26,-8,-4,-1,1652970127.411686
-26,5,-9,-21,-27,6,1,-6,1652970127.411686
9,16,6,46,2,-5,-2,0,1652970127.411686
-26,-37,6,12,18,-49,2,3,1652970127.4196668
10,14,3,32,34,25,-1,-6,1652970127.4196668
10,-1,2,-25,-11,9,-11,-13,1652970127.4316356
-17,-20,-11,-19,52,25,11,5,1652970127.4346266
-19,2,4,6,-29,63,7,10,1652970127.4495862
39,17,4,-2,30,-7,-1,-12,1652970127.4495862
72,65,-1,75,-14,-27,9,25,1652970127.4525793
0,21,-10,-70,-27,17,-10,-5,1652970127.4525793
-24,-6,2,40,-10,-68,-22,-5,1652970127.4665396
-2,-40,-12,-105,-74,-20,-12,1,1652970127.4665396
-25,12,28,53,83,64,-3,-10,1652970127.4745188
5,3,37,43,8,-3,0,3,1652970127.4745188
-6,-14,-15,-35,-52,-44,-1,6,1652970127.4815013
9,-1,-11,-12,7,6,-1,-10,1652970127.4815013
-53,-68,-19,-12,0,-7,2,-7,1652970127.4934685
41,53,-16,29,-49,19,2,0,1652970127.4934685
4,-29,-17,-16,15,36,19,5,1652970127.508429
-3,24,14,39,53,35,-2,1,1652970127.508429
3,-24,9,-3,-62,-54,-7,-10,1652970127.508429
-9,29,44,34,89,19,-6,-6,1652970127.508429
54,28,26,102,9,21,8,16,1652970127.5283754
-37,-25,-31,-104,-38,-31,0,6,1652970127.5283754
-23,13,-30,-72,-17,71,15,-3,1652970127.5303686
24,-27,-32,5,6,-73,-11,0,1652970127.5303686
-11,10,15,-2,16,5,5,-1,1652970127.5493212
18,-18,7,25,-6,8,8,-19,1652970127.5493212
0,-21,9,-15,-23,-7,-2,12,1652970127.5493212
-31,18,7,29,-5,-34,-11,-8,1652970127.5493212
13,12,-26,-27,-23,-2,-19,4,1652970127.5632825
-4,-3,1,19,3,11,4,5,1652970127.5632825
7,6,24,-14,11,-18,0,-4,1652970127.5712585
32,-34,58,51,-31,-24,7,8,1652970127.5712585
-45,10,32,27,58,57,7,-11,1652970127.5892105
-26,-6,-12,4,10,-7,-15,-13,1652970127.5892105
58,70,-7,22,-40,-40,-3,9,1652970127.5941975
-8,-24,-22,-42,53,79,18,-21,1652970127.5961616
-19,-2,3,-53,-6,-63,-25,18,1652970127.6051366
10,2,0,-16,-25,-19,9,36,1652970127.6051366
-3,-14,-1,83,90,43,3,2,1652970127.6121519
-20,-25,-48,-35,-7,-23,3,13,1652970127.6121519
-29,-36,0,21,1,10,7,-32,1652970127.6271093
52,39,7,-14,7,16,-8,-7,1652970127.6271093
-35,-1,7,-10,2,-2,3,13,1652970127.6271093
21,16,-9,-43,-57,-27,4,-6,1652970127.6271093
-42,-57,-12,35,51,16,1,-2,1652970127.6460595
18,38,14,4,-33,-39,-20,-14,1652970127.6460595
8,6,28,28,22,29,12,3,1652970127.6530433
0,-14,-20,-25,26,-5,-15,5,1652970127.6530433
17,15,-13,12,-56,7,12,2,1652970127.6610193
11,-14,-17,-26,9,26,-8,-3,1652970127.6610193
-29,-4,2,-63,1,2,-7,-16,1652970127.667969
24,27,3,78,57,4,-5,5,1652970127.667969
17,-1,-5,-25,-38,3,8,3,1652970127.6859586
3,34,15,30,15,-47,9,-1,1652970127.6859586
-43,-82,-21,-20,9,-7,-9,-10,1652970127.6859586
11,-1,-22,-45,-71,-10,0,11,1652970127.6859586
3,33,16,30,59,-27,-14,-10,1652970127.7085612
5,-7,5,14,-12,30,-2,-12,1652970127.7085612
8,-17,-10,-1,10,19,-4,10,1652970127.7085612
-39,-13,-1,3,-10,-5,7,0,1652970127.7085612
29,18,-14,-27,-38,-9,7,24,1652970127.7265155
-19,10,-3,-23,9,30,6,-7,1652970127.7265155
14,17,2,33,32,-59,-5,3,1652970127.7334971
-8,-7,3,-13,-61,-10,-16,-2,1652970127.7334971
-5,-15,3,-15,26,27,6,-24,1652970127.755438
-31,-33,4,17,-44,-23,1,6,1652970127.755438
26,-1,-13,36,-1,1,2,-3,1652970127.755438
-22,-6,6,-8,0,-13,1,-4,1652970127.755438
4,13,49,48,25,16,8,1,1652970127.7684047
16,4,13,35,36,-5,-3,-3,1652970127.7684047
-9,-2,-5,56,48,33,-10,-9,1652970127.7744195
-15,-3,-16,-58,19,81,7,-2,1652970127.7744195
-4,3,-2,-30,-17,-2,-4,-3,1652970127.781404
18,7,2,36,36,24,12,8,1652970127.781404
-20,-16,-18,-90,-43,-23,-2,-8,1652970127.789382
-26,-32,-5,41,27,-17,-5,-7,1652970127.789382
35,61,-2,-18,-2,-5,10,9,1652970127.804377
-12,3,-2,32,5,-10,-1,16,1652970127.804377
11,22,-1,-14,3,25,-12,-32,1652970127.809365
-24,-26,4,8,-49,-16,12,0,1652970127.809365
39,0,-8,5,8,-5,-15,37,1652970127.8561344
14,13,-7,-17,-43,-36,-13,-23,1652970127.8561344
-3,6,8,-6,-6,16,22,35,1652970127.8561344
-4,-8,-29,19,1,-44,-5,-14,1652970127.8561344
-18,-11,40,99,-10,-35,-3,-11,1652970127.8561344
-8,-10,-27,-88,44,82,5,11,1652970127.8561344
6,-1,-1,-39,-45,-40,-19,-20,1652970127.8561344
4,7,3,-73,-8,6,2,0,1652970127.8561344
-7,-18,1,80,18,43,13,-1,1652970127.881039
-3,12,19,-6,36,-43,-8,-7,1652970127.881039
1,2,9,-10,-5,-13,1,-5,1652970127.881039
6,10,-14,65,10,-29,-4,8,1652970127.881039
-6,-4,15,-45,-27,38,3,-4,1652970127.897061
-12,-16,-7,8,-30,2,-9,-11,1652970127.897061
-1,-5,-32,-84,20,-10,5,9,1652970127.897061
10,17,9,-7,-40,-20,-9,4,1652970127.897061
-6,-16,-35,-21,12,19,0,-12,1652970127.9040003
-3,-6,11,105,-10,-20,-6,1,1652970127.9040003
4,6,-5,-14,13,16,1,6,1652970127.9140067
4,9,17,-22,50,54,5,-1,1652970127.9140067
-13,-10,-15,-30,-31,-35,-3,-9,1652970127.9219894
0,-4,-6,0,7,10,4,7,1652970127.926972
4,5,8,86,-23,-55,-9,-2,1652970127.9289672
6,5,7,-92,-49,29,0,-2,1652970127.9289672
-2,-3,-1,17,-10,-27,-5,-3,1652970127.9479167
-4,-19,-17,52,38,45,13,2,1652970127.9479167
-3,7,9,-6,48,24,-11,-11,1652970127.9479167
-1,0,-14,-15,-18,-47,-5,1,1652970127.9479167
1,8,3,-28,6,10,-5,1,1652970127.9618828
-3,-2,8,-29,-51,-20,-3,-4,1652970127.9618828
-2,3,0,45,7,22,0,-2,1652970127.9688559
-3,-7,-2,6,-26,-56,-6,-4,1652970127.9688559
-6,-9,-24,-18,40,18,0,-3,1652970127.982827
-2,3,10,0,-20,-8,0,1,1652970127.982827
1,0,20,55,-27,-51,-3,0,1652970127.994759
-1,-1,-18,-74,26,5,-2,-2,1652970127.994759
-6,-7,7,61,3,-6,-4,-9,1652970128.008754
-5,-6,-6,-74,-11,8,1,-2,1652970128.008754
0,-5,-13,-21,-21,9,4,3,1652970128.008754
3,-1,4,49,4,16,1,0,1652970128.008754
-4,-8,-10,-33,4,-18,3,-2,1652970128.0296984
-2,-6,-16,15,42,10,-3,1,1652970128.0296984
7,19,26,39,20,23,5,4,1652970128.0296984
-4,-1,3,18,-3,-8,-5,-4,1652970128.0296984
-3,-11,-18,-49,-27,20,0,-1,1652970128.0486465
0,-7,-23,-19,15,-52,0,0,1652970128.0486465
5,11,47,79,9,38,2,2,1652970128.0486465
0,2,10,-34,12,15,4,-1,1652970128.053601
-1,1,-14,-63,5,0,-1,4,1652970128.0675964
0,2,4,-18,-62,-50,-10,-4,1652970128.0675964
-6,-14,-23,7,22,28,-3,-4,1652970128.0705938
-1,5,9,25,-10,-22,-4,0,1652970128.0705938
1,-2,4,43,6,-21,0,-2,1652970128.0895476
-1,-8,-12,-82,-32,1,-1,3,1652970128.0895476
0,6,-6,-20,22,-6,1,14,1652970128.0969791
-3,6,8,1,-38,35,2,-17,1652970128.0969791
0,-2,-11,-13,-4,-13,-9,-5,1652970128.1039631
-1,4,13,25,-14,7,2,-1,1652970128.1039631
4,0,8,70,4,-1,4,3,1652970128.1119437
0,0,-1,-25,18,9,-2,6,1652970128.1119437
1,0,4,25,-20,-4,4,1,1652970128.1259074
0,7,7,52,20,17,1,1,1652970128.1259074
-2,-13,-10,-81,-5,2,-2,-6,1652970128.1308901
-4,2,2,29,12,-12,-4,-1,1652970128.1308901
-2,5,0,-23,-6,7,0,-2,1652970128.14387
1,-1,4,31,19,13,2,2,1652970128.14387
1,-1,-14,-29,-24,-17,0,-5,1652970128.1508029
4,1,0,23,-14,1,1,2,1652970128.1508029
-3,0,9,-2,5,0,-5,0,1652970128.1657734
-7,-11,-12,39,33,25,7,2,1652970128.1657734
-2,4,0,-19,-8,-20,-13,-7,1652970128.1737416
7,3,14,28,-19,11,6,3,1652970128.1737416
-12,-9,-17,-77,-16,5,-8,-13,1652970128.1927245
16,3,-8,93,28,-8,-13,11,1652970128.1927245
-8,-9,-9,-88,-22,-3,6,23,1652970128.1927245
-7,-8,-13,19,5,8,24,-7,1652970128.1927245
3,7,14,5,0,-5,9,6,1652970128.2126703
-5,-13,6,-36,-5,7,4,-13,1652970128.2126703
-17,-17,-8,41,0,-3,-12,-6,1652970128.2146645
20,57,15,27,18,-9,-9,8,1652970128.2146645
-2,2,19,-1,-9,1,2,-3,1652970128.2296243
-1,5,3,-56,-9,-9,-14,-6,1652970128.2296243
6,-11,-10,-9,-10,-4,-1,-5,1652970128.2296243
-18,-33,-23,-38,-4,-1,-2,-2,1652970128.2296243
2,0,-17,72,24,2,-1,-2,1652970128.2535288
1,5,38,-3,3,-5,0,6,1652970128.2535288
-1,2,0,-39,-29,-6,3,-3,1652970128.2535288
-6,3,-7,4,21,7,2,-2,1652970128.2535288
18,-3,-8,-26,-20,-7,-6,3,1652970128.2684894
8,4,0,3,22,3,17,29,1652970128.2684894
-11,22,-10,38,-11,-8,-9,-13,1652970128.2764995
-7,-10,-1,-2,16,11,19,0,1652970128.2764995
-4,2,-13,8,-13,-4,1,1,1652970128.2824845
-10,-12,17,-12,-20,0,-9,-23,1652970128.2824845
3,-12,-9,46,10,-1,-12,-2,1652970128.290463
-4,-4,-10,-4,14,-10,21,39,1652970128.290463
7,1,7,18,23,14,6,0,1652970128.316393
0,7,-15,-59,-29,0,5,11,1652970128.316393
-10,-8,1,-37,-10,-1,1,-23,1652970128.316393
9,-17,8,39,3,-13,-31,20,1652970128.316393
-3,-1,-4,-30,-27,-18,-5,-14,1652970128.376225
-6,-3,-26,-36,49,27,4,-10,1652970128.376225
2,5,8,3,-25,0,5,-3,1652970128.376225
-5,-11,7,9,-17,3,-9,-15,1652970128.376225
6,5,8,20,9,6,2,6,1652970128.3881862
4,37,-3,14,-18,-4,-2,-6,1652970128.3881862
7,-11,13,-17,-5,1,4,-4,1652970128.3881862
-24,-29,-21,-20,-13,3,-1,-8,1652970128.3881862
15,-1,-23,-14,10,-1,-14,7,1652970128.3881862
-17,6,-1,13,22,34,13,-16,1652970128.3881862
29,24,31,18,-2,-12,11,24,1652970128.3881862
-7,10,27,-18,-8,-21,-31,-24,1652970128.3881862
-12,-9,-2,17,16,-11,1,3,1652970128.4196568
7,-12,-18,25,-2,-3,-11,3,1652970128.4196568
-7,-9,-13,-16,-17,11,8,8,1652970128.4196568
6,0,-4,-7,28,-13,-4,1,1652970128.4196568
-7,-4,-2,30,3,-3,0,-5,1652970128.4196568
-18,-43,-20,-38,13,2,2,-2,1652970128.4196568
-3,8,4,-4,-45,-2,-4,5,1652970128.4196568
17,48,54,-2,25,24,5,-6,1652970128.4196568
0,8,2,43,-15,-13,-6,3,1652970128.4543996
2,-10,3,20,-1,-12,-6,-5,1652970128.4543996
-11,-16,-48,-61,1,-5,-4,-7,1652970128.4543996
5,-3,-24,-29,-2,16,5,0,1652970128.4543996
-3,11,33,-17,-2,17,9,-3,1652970128.475186
1,-5,14,17,-49,-39,-7,-1,1652970128.475186
-7,-14,-30,-4,17,-7,-11,-6,1652970128.475186
4,0,-4,52,17,14,8,3,1652970128.475186
-9,-4,0,-2,4,15,2,0,1652970128.4870992
1,3,-7,-34,-22,-17,-12,-4,1652970128.4870992
9,-19,-3,-22,-10,12,0,2,1652970128.4870992
-14,35,11,-5,5,5,4,-1,1652970128.4870992
-6,-46,-19,28,14,-27,-9,-5,1652970128.5221663
26,35,-38,-12,-12,14,7,12,1652970128.5221663
1,21,51,61,21,-6,1,-2,1652970128.5221663
4,-31,-22,-56,-23,45,22,4,1652970128.5221663
-2,32,60,-21,35,-9,-2,-2,1652970128.5221663
-3,6,25,-15,-28,-15,-3,-4,1652970128.5221663
-3,-12,-21,71,31,7,0,-3,1652970128.5221663
-4,-22,-11,-1,-17,-3,-10,-8,1652970128.5221663
-3,-14,-33,-33,-40,-7,1,0,1652970128.5411162
0,3,2,19,50,-2,-4,0,1652970128.5411162
2,23,55,79,54,12,4,2,1652970128.5906856
4,7,-11,-22,-1,-34,-11,-1,1652970128.5906856
1,-12,-37,-19,-45,-7,1,-2,1652970128.6006203
-1,9,27,-19,40,66,4,1,1652970128.6006203
-7,-5,-8,-11,4,29,3,-1,1652970128.6006203
11,-27,-5,12,7,-62,-14,-6,1652970128.6006203
-17,-10,-21,-4,-2,11,2,3,1652970128.6006203
-2,-23,-72,21,-5,-4,4,2,1652970128.6006203
9,75,69,12,-28,-47,-1,2,1652970128.6006203
12,3,15,17,74,80,8,5,1652970128.6006203
13,27,48,-15,-33,-7,-6,1,1652970128.6006203
-9,-68,-18,26,-7,-16,-2,-6,1652970128.6006203
-6,-15,-46,-60,-9,19,6,1,1652970128.6006203
-9,44,14,38,21,0,-1,-6,1652970128.6006203
7,-11,24,39,17,-27,-5,-3,1652970128.6572125
-7,12,-1,-56,17,35,1,-1,1652970128.6572125
22,-38,-40,84,-2,-22,-10,-5,1652970128.6572125
-33,1,9,-73,-84,-16,-3,-4,1652970128.6572125
-9,-32,-25,-6,18,24,7,3,1652970128.6691723
-6,4,22,10,-1,-38,-3,-2,1652970128.6691723
13,26,-5,-31,20,36,6,4,1652970128.6691723
5,14,16,-1,-14,-24,-7,-2,1652970128.6691723
1,-5,-17,54,-4,-7,-5,-4,1652970128.6691723
-11,-19,8,-76,-40,-14,-2,-2,1652970128.6691723
3,-11,-6,-99,-1,45,6,1,1652970128.6691723
9,22,-2,30,-18,-62,-10,-2,1652970128.6691723
-10,-11,-4,16,-8,6,-1,-3,1652970128.690133
19,11,27,127,38,4,2,0,1652970128.690133
-3,18,-10,-51,6,-6,1,3,1652970128.690133
-3,-24,-26,-29,-24,-8,2,2,1652970128.690133
-2,6,-20,-71,-13,-8,-3,-3,1652970128.6981473
-2,9,60,27,-58,-31,-6,-2,1652970128.6981473
-7,-13,19,66,-44,9,1,-1,1652970128.6981473
5,-15,13,68,50,-10,-5,0,1652970128.6981473
-2,3,-54,-85,19,3,-2,1,1652970128.706093
-10,-10,-56,-22,-9,-3,1,-4,1652970128.706093
-4,6,44,68,36,12,2,-2,1652970128.7140715
12,-1,24,7,-82,-4,3,5,1652970128.7140715
-5,21,31,57,56,18,1,1,1652970128.7280343
1,-12,3,-28,-52,-25,-1,2,1652970128.7280343
-16,-15,-42,-123,-12,-17,1,-3,1652970128.7280343
18,18,-2,91,77,7,-3,-2,1652970128.7280343
-24,-16,-9,-52,-27,-7,7,5,1652970128.754962
13,46,-7,7,5,-22,-10,-6,1652970128.754962
-1,-22,-15,-71,-37,-49,-9,-5,1652970128.754962
0,-24,2,-11,-16,38,12,23,1652970128.754962
3,5,1,-8,60,33,4,-9,1652970128.7619436
1,2,5,33,-25,29,-1,4,1652970128.7619436
2,-4,-7,65,55,103,11,2,1652970128.7769036
11,-5,-48,-103,7,-22,-11,-15,1652970128.7769036
10,-4,-10,-27,-35,77,23,13,1652970128.789869
-5,1,30,70,8,-79,1,6,1652970128.789869
25,-6,7,40,-31,-24,-8,-4,1652970128.789869
-65,13,23,27,6,15,-5,-7,1652970128.789869
24,30,3,-18,-1,-5,-1,6,1652970128.8118103
-1,2,2,-48,-2,26,2,-4,1652970128.8118103
-35,-48,35,66,6,-55,-2,1,1652970128.8118103
2,16,-18,-31,64,53,4,-6,1652970128.8118103
27,64,2,41,26,-1,-9,-4,1652970128.8247757
6,18,-14,-95,8,7,0,1,1652970128.8247757
-20,-50,-22,57,-16,19,-12,-4,1652970128.8719232
5,-48,2,-20,0,-14,-2,-1,1652970128.8719232
3,67,-2,-102,-55,-10,-5,-7,1652970128.8829312
38,21,-11,30,-28,-7,-7,-12,1652970128.8829312
-36,-19,-5,-18,45,4,9,7,1652970128.8829312
28,18,-12,52,5,54,8,18,1652970128.8829312
-30,-51,25,34,-30,-47,-8,-5,1652970128.8829312
31,-1,-28,19,13,53,5,4,1652970128.8829312
-38,10,6,-52,8,34,1,-11,1652970128.8829312
2,-41,-53,28,-20,-37,-7,-9,1652970128.8829312
-10,14,94,127,45,-22,-5,3,1652970128.9063983
-10,10,17,-56,-56,-14,9,1,1652970128.9063983
1,13,-20,22,-34,-58,-12,-3,1652970128.9133813
-24,-23,14,-4,14,67,14,0,1652970128.9133813
40,6,-24,-10,7,0,-15,-7,1652970128.9133813
-66,-50,11,39,58,-17,-17,-10,1652970128.9133813
59,44,-24,-51,40,82,6,11,1652970128.9133813
43,3,-23,-12,-86,-44,-1,2,1652970128.9133813
-44,-10,-24,10,-41,-24,-27,-38,1652970128.929339
11,-4,6,-14,68,92,40,22,1652970128.929339
-26,-48,-31,-81,-49,-76,-28,-12,1652970128.929339
5,69,24,15,32,89,-13,0,1652970128.929339
-2,-35,9,70,8,-23,1,-1,1652970128.9814572
4,12,-43,-46,-27,5,-22,-2,1652970128.9814572
8,3,76,101,47,-3,19,3,1652970128.991435
14,-17,-7,-50,-18,-33,2,2,1652970128.991435
60,32,-14,-7,-37,-68,11,13,1652970128.991435
-25,36,-5,48,16,-42,-2,-5,1652970128.991435
-10,-37,78,40,-9,-109,17,9,1652970128.991435
9,-2,-23,-39,21,-36,-1,-11,1652970128.991435
23,81,27,-28,10,-6,-7,9,1652970129.0143065
5,-40,-1,-51,-76,6,-13,-2,1652970129.0143065
-12,19,-36,6,-45,61,2,-12,1652970129.0143065
-70,-109,2,76,81,103,5,-12,1652970129.0143065
29,-18,-59,-97,10,6,-24,-32,1652970129.0231693
17,22,4,3,3,-22,13,-20,1652970129.0231693
-28,45,-17,-49,-44,-74,1,38,1652970129.0231693
2,36,-3,61,-24,-53,2,12,1652970129.0231693
-59,-112,18,2,-6,-11,10,-8,1652970129.028156
-17,-26,-5,19,17,-13,-7,-38,1652970129.028156
62,38,-37,-93,23,7,-7,-12,1652970129.0361352
-21,-2,-11,-61,-42,-117,9,6,1652970129.0361352
-74,-19,55,78,90,111,38,29,1652970129.0918045
93,-44,9,-29,0,-52,-18,3,1652970129.0918045
-20,76,-45,16,-6,-87,-23,-15,1652970129.0918045
-9,-54,-12,-86,-107,-31,-11,-1,1652970129.0918045
-1,90,-25,37,63,84,2,6,1652970129.0918045
11,-17,57,20,34,-1,3,4,1652970129.0918045
38,-11,-3,14,-24,-65,1,9,1652970129.0918045
6,11,-37,-49,-20,-127,-19,-17,1652970129.0918045
-8,-28,51,47,-15,-128,0,2,1652970129.1140327
-7,1,-72,-33,-61,-105,-7,5,1652970129.1140327
-8,-34,7,43,57,-79,12,-2,1652970129.1190186
-11,26,49,83,-44,-127,-7,-2,1652970129.1190186
25,-24,-53,-83,32,-4,5,9,1652970129.1250548
-68,15,36,-37,-30,48,3,11,1652970129.1250548
-8,-44,3,-30,-63,73,-8,-10,1652970129.1250548
-3,68,-5,61,2,127,13,-2,1652970129.1250548
40,18,-33,12,23,106,-7,8,1652970129.1968868
-30,-22,44,26,43,127,-1,7,1652970129.1968868
30,-20,-11,-59,-10,127,-1,-4,1652970129.1968868
-16,4,11,-4,29,127,24,7,1652970129.1968868
8,20,1,18,-45,-45,2,-6,1652970129.1968868
-67,-6,-11,-41,-29,24,0,2,1652970129.1968868
54,14,-1,21,3,-16,-4,-11,1652970129.206865
35,27,27,-3,56,0,-18,-5,1652970129.206865
-20,-58,-24,10,-51,14,9,10,1652970129.210854
3,2,-25,-7,-4,33,-1,1,1652970129.210854
-49,-6,29,16,-9,53,5,2,1652970129.210854
13,-8,30,32,52,121,-8,-4,1652970129.210854
12,25,-9,-19,-16,104,3,-1,1652970129.210854
19,-11,-49,-13,-8,62,-2,-2,1652970129.210854
-1,42,85,25,46,-59,-5,5,1652970129.210854
-7,-31,-17,51,-20,-128,-2,-14,1652970129.210854
-21,-43,-7,-22,-11,56,-5,-1,1652970129.210854
31,27,10,-35,-3,39,2,9,1652970129.210854
17,7,-7,69,39,43,5,2,1652970129.2258515
-46,-17,-9,10,7,-97,0,1,1652970129.2258515
17,15,-2,-67,59,-89,4,4,1652970129.2801082
-5,18,5,33,-57,-99,1,-7,1652970129.2801082
-9,-27,-21,1,20,-35,2,3,1652970129.2801082
-16,-13,3,-40,-40,-13,-1,0,1652970129.2801082
-8,5,-2,18,-53,-71,-10,-1,1652970129.289123
18,-7,1,25,83,-45,10,2,1652970129.289123
22,14,-7,-2,32,-95,-15,0,1652970129.289123
14,8,1,-10,-10,-13,6,10,1652970129.289123
-14,-16,12,4,-7,-38,-11,-10,1652970129.289123
0,4,11,39,-2,-38,0,2,1652970129.289123
-17,3,-25,-46,-35,42,2,2,1652970129.289123
20,10,-1,-41,-48,-11,-12,-12,1652970129.289123
-8,-13,-3,5,-3,-128,1,-5,1652970129.313652
-4,-2,19,-4,36,-84,-1,0,1652970129.313652
-13,-11,-17,97,-6,-90,-2,0,1652970129.313652
9,17,10,-113,3,-29,-7,1,1652970129.313652
-15,-33,6,74,14,-23,8,-11,1652970129.3256545
5,0,-31,-64,-12,-20,-5,-32,1652970129.3256545
9,26,-4,2,-4,59,5,24,1652970129.3256545
10,-6,-3,6,-15,-26,1,5,1652970129.3256545
4,3,10,43,-11,127,3,3,1652970129.3476274
1,-1,11,19,17,64,0,5,1652970129.3476274
-10,-14,-7,-32,-21,127,0,-16,1652970129.3554916
3,-1,-4,15,42,127,9,4,1652970129.3554916
9,6,0,-28,-11,57,-8,3,1652970129.3554916
-6,5,-6,31,12,35,1,3,1652970129.3554916
-12,-11,-3,-51,-28,-37,6,-7,1652970129.3554916
1,3,1,15,15,28,2,7,1652970129.3554916
0,0,-6,-21,-9,66,-6,-2,1652970129.3981438
-7,2,13,33,17,66,0,4,1652970129.3981438
-4,-6,-2,-25,-26,127,0,-5,1652970129.3981438
2,-4,-9,-17,-19,-21,4,-4,1652970129.3981438
0,-1,4,67,4,-25,-1,-11,1652970129.3981438
-11,-3,-5,-10,26,-29,5,16,1652970129.3981438
-14,-17,-20,-50,23,-16,-12,-15,1652970129.4150476
-5,-1,-13,-45,-80,-93,-2,-5,1652970129.4150476
0,-7,5,-28,18,-89,-2,0,1652970129.4290557
-17,-19,14,45,-31,-66,-4,13,1652970129.4290557
3,28,2,8,8,-31,-10,-19,1652970129.4290557
15,20,-1,11,35,16,5,1,1652970129.4290557
-10,1,-4,-16,-10,-56,-7,-2,1652970129.455921
6,-7,-1,15,-4,-53,1,-2,1652970129.455921
-17,-17,3,40,-11,-31,-3,-7,1652970129.455921
2,-5,1,-28,5,20,2,4,1652970129.455921
5,-2,-6,-44,-12,42,-11,6,1652970129.455921
4,4,-1,-24,10,37,-2,5,1652970129.455921
-1,0,-3,25,3,43,0,-1,1652970129.4811761
-3,7,13,63,-16,-47,-23,-11,1652970129.4811761
0,-2,4,7,57,110,15,5,1652970129.4901092
2,7,0,20,11,52,0,-3,1652970129.4901092
1,-3,-8,-34,-28,0,3,-2,1652970129.4901092
-5,-11,-8,-24,7,16,-3,-1,1652970129.4901092
-5,-1,1,10,-23,-37,4,-4,1652970129.514162
-14,7,-2,-15,31,-20,-5,-7,1652970129.514162
11,11,18,0,15,-45,9,12,1652970129.514162
15,4,15,50,17,-25,-2,15,1652970129.514162
6,-13,-13,-64,-1,-37,2,-11,1652970129.5221312
-6,20,14,37,-15,-35,0,-18,1652970129.5221312
-27,-19,-19,-60,7,-33,10,1,1652970129.5221312
-18,3,-7,9,25,4,-14,8,1652970129.5221312
9,13,10,26,-16,-24,0,8,1652970129.5301096
2,-16,-6,-8,-54,-39,-2,-5,1652970129.5301096
-8,-10,0,8,24,20,-11,-2,1652970129.5301096
4,-2,1,-21,-17,26,-1,-13,1652970129.5301096
-4,-5,-3,16,-11,29,-2,7,1652970129.5520203
11,3,-4,-23,19,-4,-8,3,1652970129.5520203
7,-5,0,6,-10,10,-5,-16,1652970129.5520203
1,-7,-2,39,20,21,18,4,1652970129.5520203
-1,8,-2,-63,-19,-31,-12,-4,1652970129.5710132
-3,-13,-12,-4,-31,-10,-13,6,1652970129.5710132
11,29,23,45,-9,-10,6,4,1652970129.5789802
-12,-18,-11,-75,-8,2,8,-8,1652970129.5789802
6,3,-1,32,29,-1,28,9,1652970129.5879664
-9,2,-8,12,10,40,10,32,1652970129.5929449
-6,-15,-15,-42,2,-13,-12,-13,1652970129.594937
-6,-7,-2,47,-9,-18,-1,-5,1652970129.594937
7,-8,16,-2,-26,-7,12,12,1652970129.6108954
29,26,-14,-76,-19,-28,-25,-16,1652970129.6108954
-10,3,6,50,1,-30,0,42,1652970129.6108954
-2,-4,11,-31,1,-7,9,-7,1652970129.6108954
-7,5,-11,-55,-29,22,3,1,1652970129.6298268
-3,-12,7,50,50,-6,0,-18,1652970129.6298268
5,-1,-15,-53,-48,-4,-16,-4,1652970129.666206
3,-13,-27,28,-5,-1,-8,1,1652970129.666206
-9,-4,16,34,32,12,-7,-15,1652970129.666206
4,18,42,16,-56,-37,12,6,1652970129.666206
5,-5,5,-1,21,-30,3,-5,1652970129.666206
-1,6,15,4,69,12,-4,2,1652970129.666206
2,5,-20,66,-9,-42,-13,-6,1652970129.67717
-1,2,-4,-46,48,-101,9,6,1652970129.67717
10,0,4,38,40,24,-3,-9,1652970129.67717
-1,-14,-24,-99,-18,46,3,16,1652970129.67717
-17,-10,-1,-21,-13,66,-3,-10,1652970129.7322319
-11,-7,1,39,20,34,-3,-8,1652970129.7322319
12,14,-54,-43,-58,26,9,6,1652970129.7322319
11,31,53,111,-15,3,1,-1,1652970129.7322319
15,14,21,-72,36,13,7,9,1652970129.7402124
-15,-15,-18,-20,-17,120,-8,-5,1652970129.7402124
0,-12,32,21,-38,0,12,0,1652970129.7402124
-1,-2,-8,7,25,-63,-5,-6,1652970129.7402124
-6,-3,-2,29,18,-111,-11,2,1652970129.7402124
-4,-8,1,7,0,-17,3,-7,1652970129.7402124
-11,-27,-35,-22,9,17,-9,-3,1652970129.7402124
4,28,9,12,-37,57,8,0,1652970129.7402124
-3,1,-7,-63,8,-26,-11,-6,1652970129.7742858
5,3,-12,42,5,-10,12,6,1652970129.7742858
10,-16,34,-13,10,-128,-7,0,1652970129.7742858
4,35,26,68,14,-60,-2,-2,1652970129.7742858
7,1,5,42,-19,-27,-5,-5,1652970129.7742858
9,6,-29,-81,-3,31,-4,20,1652970129.7742858
-33,-17,-24,-10,2,70,3,2,1652970129.7742858
-7,-24,-19,-49,27,-4,-18,-10,1652970129.7742858
5,18,15,45,-70,11,-9,-10,1652970129.7942317
0,-4,2,-6,33,59,17,14,1652970129.7942317
7,11,21,19,-2,33,12,16,1652970129.7942317
-9,-17,-21,-59,-10,32,-1,-7,1652970129.7942317
0,1,-3,49,16,34,-7,-2,1652970129.8042042
-3,-4,19,19,-10,-15,-20,-14,1652970129.8042042
3,7,-4,31,50,26,11,27,1652970129.8121822
3,-5,-22,-28,-67,3,-21,-4,1652970129.8181343
-11,-22,-2,-23,-31,20,7,5,1652970129.8321345
14,-5,12,41,2,17,12,-16,1652970129.8321345
-28,-8,-11,-86,-55,-27,-13,4,1652970129.8321345
31,24,5,2,45,32,14,15,1652970129.8321345
1,18,-25,-24,-35,-15,-2,-9,1652970129.8560648
-1,20,8,50,14,-11,0,4,1652970129.8560648
8,7,26,20,2,9,5,-20,1652970129.8560648
-18,-28,7,9,23,28,10,-6,1652970129.8560648
-3,-15,-8,3,12,17,2,8,1652970129.8640454
-7,-13,1,-20,-29,-26,-14,-10,1652970129.8640454
4,-4,-26,36,24,15,1,-7,1652970129.9251993
-7,-9,-3,-18,-51,-9,-1,-5,1652970129.9251993
1,1,7,-57,20,12,0,4,1652970129.9251993
-8,-1,4,37,-5,-15,-2,0,1652970129.9251993
7,12,1,-58,-11,5,1,-11,1652970129.9251993
-2,-2,-12,-27,-5,-30,2,7,1652970129.9251993
0,-3,-8,72,29,54,-1,-2,1652970129.9251993
-7,-10,-11,-110,-30,-39,-15,-6,1652970129.9251993
7,6,15,32,-9,-19,-8,-3,1652970129.9251993
2,-1,-9,44,84,6,9,-1,1652970129.9251993
-6,-1,-25,-12,-35,-24,2,2,1652970129.9430885
5,6,41,18,-10,15,-4,10,1652970129.9430885
-2,6,1,22,42,26,-2,-8,1652970129.9520588
0,11,23,-2,-57,-16,-12,-8,1652970129.9520588
1,-22,-16,-10,25,-21,-2,0,1652970129.95302
2,-6,-20,1,28,46,10,-3,1652970129.95302
1,7,9,57,-31,-59,-6,-3,1652970129.95302
-7,-4,-18,-3,29,0,-1,-1,1652970129.95302
-2,12,11,-99,-44,-34,-6,-1,1652970129.9759922
-1,-2,0,64,14,-15,5,-3,1652970129.9759922
1,-20,-8,7,-11,13,-1,-3,1652970129.9759922
-2,-4,-12,-64,-9,-23,-3,3,1652970129.9759922
-4,-6,13,26,20,10,-2,-2,1652970129.9839375
-4,31,-10,-14,-5,35,5,-2,1652970129.9839375
-1,-11,9,8,-2,-32,0,-1,1652970129.9959486
-5,-33,-19,61,-31,-16,-10,-8,1652970129.9959486
2,18,2,-36,22,41,10,3,1652970130.011896
-4,-21,-1,-13,-30,-43,-12,-6,1652970130.011896
5,33,-14,-3,-14,-2,-1,2,1652970130.011896
1,-28,21,-20,-25,-19,-1,-4,1652970130.011896
-12,13,9,22,-30,-29,-5,0,1652970130.072103
15,-4,-19,35,38,0,5,3,1652970130.072103
-5,19,8,-62,16,47,6,-3,1652970130.072103
13,-4,-4,4,1,4,4,-1,1652970130.072103
-18,-48,-24,19,29,6,1,-1,1652970130.072103
4,56,4,-14,21,17,7,3,1652970130.072103
8,-13,28,38,-6,-29,-8,6,1652970130.072103
0,45,23,-49,32,43,7,-4,1652970130.072103
11,4,16,28,-38,-47,-6,-1,1652970130.072103
-13,-28,-12,3,-48,-37,1,-3,1652970130.072103
-6,-35,-2,-24,44,58,-4,-7,1652970130.072103
-12,16,-7,47,-20,-37,-4,1,1652970130.072103
-11,-31,-32,-52,28,12,3,0,1652970130.0952194
1,-25,-9,-26,-41,-12,-4,-5,1652970130.0952194
13,31,-14,4,-22,-3,2,3,1652970130.0952194
36,-17,16,24,10,13,-5,-1,1652970130.0952194
-25,42,1,54,-40,-13,3,3,1652970130.1601326
-6,-19,-11,-30,61,47,5,2,1652970130.1601326
-13,-8,5,-25,16,30,-14,1,1652970130.1601326
-19,1,-24,-22,10,114,1,-26,1652970130.1601326
9,-31,20,48,32,117,2,-3,1652970130.1601326
5,25,-12,-14,-76,63,-10,-1,1652970130.1601326
13,-19,-12,-39,7,76,3,7,1652970130.1601326
-2,29,70,119,8,20,-4,5,1652970130.1601326
23,25,9,-115,-19,72,2,3,1652970130.1761765
-6,13,-3,127,127,77,8,3,1652970130.1761765
-3,-7,13,-45,-99,-79,-10,-5,1652970130.1761765
-19,-41,-68,-64,-32,-12,0,1,1652970130.1761765
6,-31,26,38,-39,-80,-2,-4,1652970130.1861258
-27,-12,31,-70,-3,-66,-5,-1,1652970130.1861258
15,10,-44,-11,8,-75,3,-9,1652970130.1861258
9,53,18,8,33,-70,0,9,1652970130.1861258
24,18,12,-2,-8,-31,-3,4,1652970130.192143
1,-31,-9,28,8,5,2,-1,1652970130.1941369
8,18,26,20,4,-15,7,0,1652970130.1941369
-15,-5,-29,-39,-40,-28,-8,-7,1652970130.1941369
-5,-2,2,20,70,24,4,5,1652970130.272693
8,8,13,18,-46,-57,-1,2,1652970130.272693
-17,-4,0,20,53,-57,-1,2,1652970130.272693
17,-43,-53,-30,-34,-97,10,3,1652970130.272693
-29,33,35,-20,26,-101,-14,-13,1652970130.2796621
-14,-27,22,-4,27,-55,0,-4,1652970130.2796621
8,30,-8,70,0,-32,-1,-1,1652970130.2796621
10,-19,-10,-73,-21,-66,0,3,1652970130.2796621
4,-1,-56,19,11,-69,-1,-3,1652970130.2796621
17,8,5,-71,-31,-26,3,6,1652970130.2796621
-31,-26,37,93,39,48,-6,-10,1652970130.2796621
-19,36,20,59,-5,65,3,5,1652970130.2796621
-40,-46,-11,-37,24,11,-1,-2,1652970130.3263707
63,41,-12,34,29,43,6,3,1652970130.3263707
-33,-7,-21,-67,-32,-66,1,-3,1652970130.3263707
-15,-41,22,35,59,9,4,0,1652970130.3263707
3,-4,-16,-13,-25,-124,-2,-2,1652970130.3503082
-8,60,-6,-2,9,-49,-2,-14,1652970130.3503082
-16,-36,-8,6,-15,30,-3,6,1652970130.3503082
25,24,15,31,-36,-1,-13,12,1652970130.3503082
14,34,-7,-13,24,87,7,0,1652970130.3503082
-8,-12,-13,-55,-12,7,0,4,1652970130.3503082
12,-5,10,76,-1,3,0,-7,1652970130.3503082
-26,-38,2,-16,-15,19,1,-2,1652970130.351273
20,22,-5,-28,-50,4,2,5,1652970130.3937438
-32,-39,3,61,-10,-7,-11,-10,1652970130.3937438
31,14,30,22,40,27,2,-2,1652970130.3937438
-31,10,2,-38,14,6,-5,-2,1652970130.3937438
12,8,-5,1,-10,29,-2,-4,1652970130.4176424
17,-8,-61,-75,-46,8,4,1,1652970130.4176424
-33,-101,5,10,5,1,-22,-8,1652970130.4176424
26,96,15,17,36,26,-3,-6,1652970130.4176424
26,-5,19,36,-15,29,10,10,1652970130.4176424
-23,-14,12,1,-18,-17,-13,-11,1652970130.4176424
17,49,-23,-50,23,38,10,10,1652970130.4176424
13,-31,-6,-29,14,-3,-1,0,1652970130.4176424
-8,-3,-5,0,-1,21,10,5,1652970130.4176424
-6,-30,-15,12,15,12,1,6,1652970130.4176424
-5,7,5,-30,-12,21,13,-13,1652970130.4176424
-18,2,2,4,32,20,-18,3,1652970130.4176424
6,-46,20,77,13,-35,-11,-9,1652970130.4611742
-7,43,36,-10,-28,-1,3,8,1652970130.4611742
2,6,-13,-25,6,-25,-2,3,1652970130.4611742
-23,-27,15,59,9,1,8,-6,1652970130.4611742
23,0,-25,-70,2,7,-10,-3,1652970130.470134
6,11,26,64,-22,-15,-4,-4,1652970130.470134
22,54,-16,-124,6,14,-2,2,1652970130.470134
-20,-57,-23,4,-24,-58,9,-1,1652970130.470134
-12,13,-19,-5,-4,26,-14,-17,1652970130.470134
-11,11,8,-46,-7,-22,-8,0,1652970130.4711297
13,17,0,53,33,27,23,10,1652970130.4711297
5,-9,20,116,50,5,-20,-29,1652970130.4711297
-45,-52,-27,-84,-98,-68,-2,24,1652970130.478087
58,18,-17,-29,90,105,25,8,1652970130.478087
-17,9,16,-12,-24,-81,-6,5,1652970130.478087
13,10,-31,-35,64,-43,-4,-3,1652970130.478087
11,15,99,116,119,65,7,-5,1652970130.4990647
16,-12,-14,16,-82,-88,-20,1,1652970130.4990647
-21,-38,20,13,-42,55,6,-9,1652970130.4990647
1,-12,-73,-63,-62,30,-1,-3,1652970130.4990647
-28,-15,-27,20,37,61,-2,-9,1652970130.5130358
12,11,47,-18,-7,-32,2,4,1652970130.5130358
-31,40,7,-10,12,40,-3,-4,1652970130.5190184
36,3,31,-17,-63,-29,3,-9,1652970130.5190184
-15,-40,-43,29,-43,-4,-7,4,1652970130.53796
-40,-34,7,53,39,16,-6,-11,1652970130.53796
32,6,-3,-23,-42,0,7,2,1652970130.53796
-11,96,33,21,-17,102,8,23,1652970130.53796
47,20,-4,-54,8,-101,-17,-14,1652970130.592162
-40,-45,50,108,-3,59,-16,-57,1652970130.592162
-34,-9,-52,-96,-12,-24,-27,-4,1652970130.592162
14,-15,43,28,41,89,61,96,1652970130.592162
-35,8,-33,-34,-85,84,-2,6,1652970130.6230714
21,-71,-71,-27,65,72,11,23,1652970130.6230714
6,50,-14,25,36,0,-9,-25,1652970130.6230714
-64,-63,17,8,6,-95,-22,-43,1652970130.6230714
25,104,-10,-53,-15,-120,7,15,1652970130.6230714
34,37,-21,-27,-57,-128,-4,-4,1652970130.6230714
56,-10,62,80,45,-124,16,12,1652970130.6230714
-12,-20,7,3,21,-74,-4,-5,1652970130.6230714
-72,-16,71,29,7,25,2,-17,1652970130.665306
4,-15,-64,64,78,-37,-6,2,1652970130.665306
-7,-81,-38,-10,-32,127,1,-4,1652970130.665306
45,-18,-33,-53,-6,78,-17,-9,1652970130.665306
-73,24,45,52,4,2,1,-9,1652970130.696232
62,17,-17,-109,-21,-43,19,22,1652970130.696232
82,94,23,20,31,-35,-6,14,1652970130.696232
-64,2,69,34,-8,-52,6,-18,1652970130.696232
65,-14,-29,4,13,4,-10,-4,1652970130.696232
-74,-5,-39,-48,-11,-13,2,0,1652970130.696232
18,10,47,34,-7,-128,-20,5,1652970130.696232
-13,-79,-76,-113,-127,-9,-5,-13,1652970130.696232
49,119,35,90,5,-44,-7,10,1652970130.696232
-25,-28,50,-3,-69,-8,3,4,1652970130.696232
-37,0,8,43,23,-49,1,-2,1652970130.697227
58,4,-53,-32,61,-16,-4,-5,1652970130.697227
-10,-23,-4,-23,50,-8,1,1,1652970130.7204468
-3,-65,-36,-14,-38,-32,-9,-10,1652970130.7204468
-39,-1,-20,-31,-14,59,11,5,1652970130.7204468
-6,13,19,21,-34,47,2,-1,1652970130.7204468
0,-19,-14,-18,-8,-30,5,1,1652970130.7204468
23,51,13,-11,-25,19,-8,-2,1652970130.7204468
20,12,3,18,33,-2,3,4,1652970130.7204468
-35,-15,-2,50,57,1,-7,-10,1652970130.7204468
77,44,2,-53,-34,-26,6,-4,1652970130.7364008
-3,25,32,0,49,97,16,11,1652970130.7364008
-66,-37,-40,-48,-47,-32,-14,25,1652970130.7463682
55,11,-5,24,16,-52,23,18,1652970130.7463682
-33,-41,-20,8,-21,31,6,14,1652970130.754347
18,17,11,-6,-10,-31,-8,-29,1652970130.754347
-1,-44,-22,46,2,-87,-16,-17,1652970130.754347
-26,17,-1,-15,-19,-13,-8,-8,1652970130.754347
-18,-37,17,24,18,-43,-1,-5,1652970130.7742932
0,20,8,-21,-48,11,-10,2,1652970130.7742932
-20,-32,-12,-22,-4,41,4,-15,1652970130.7742932
2,27,9,61,-6,-2,4,12,1652970130.7742932
20,-25,-15,-40,48,-6,-5,-13,1652970130.7882578
-36,-23,-10,10,22,21,5,15,1652970130.7882578
2,10,12,33,25,43,-12,-7,1652970130.84215
22,21,-19,-29,-7,0,2,6,1652970130.84215
-48,-44,-12,84,14,35,11,-5,1652970130.8511198
65,36,7,-32,35,-10,-1,2,1652970130.8511198
-31,7,-17,-60,3,12,7,10,1652970130.8511198
9,10,9,-45,19,-40,-12,-16,1652970130.8511198
-12,-21,-7,-18,34,-3,2,2,1652970130.8511198
-23,35,29,8,-12,-15,-13,0,1652970130.8511198
32,16,2,-1,-21,42,4,-41,1652970130.8511198
16,22,-3,-6,-6,-89,-2,38,1652970130.8511198
16,29,-2,11,-16,-124,18,20,1652970130.8520818
-20,-11,-27,-54,-39,-128,12,3,1652970130.8520818
16,6,2,30,-12,-57,-8,3,1652970130.9091232
-13,4,21,8,7,77,-4,-25,1652970130.9091232
1,-18,-9,4,12,103,-23,-13,1652970130.9360225
-9,-3,3,20,-1,100,7,3,1652970130.9360225
-7,-31,-6,36,-28,117,2,-12,1652970130.9360225
-1,-3,-6,-53,-34,71,1,-5,1652970130.9360225
13,-4,7,73,26,127,4,5,1652970130.9360225
-12,-10,-5,-19,2,127,-5,-9,1652970130.9360225
4,-10,-10,-41,-22,104,8,20,1652970130.9360225
3,-4,7,45,4,95,3,-11,1652970130.9360225
0,-18,-14,-72,-41,35,-17,-19,1652970130.9360225
-3,3,16,49,16,-1,-6,-11,1652970130.9360225
-1,-1,-3,-18,-10,35,9,13,1652970130.9841027
-22,-7,-6,10,-15,17,-3,9,1652970130.9841027
0,-10,8,2,11,110,2,6,1652970131.0030434
6,19,10,31,5,113,-3,-7,1652970131.0030434
9,-12,-11,-39,1,23,-5,2,1652970131.0030434
-14,8,3,10,18,-52,-12,-7,1652970131.0030434
-4,-5,-13,-42,-32,-128,10,-3,1652970131.0110242
-12,-11,4,30,33,-128,-5,3,1652970131.0110242
7,5,7,10,-1,-112,7,1,1652970131.0110242
9,0,0,-2,9,-128,-6,-6,1652970131.0110242
4,7,1,-19,-37,-125,2,1,1652970131.0110242
-2,-5,3,38,8,-107,5,10,1652970131.0110242
3,-1,-21,-70,-2,-92,1,-5,1652970131.0110242
4,4,27,18,-8,-67,-4,-1,1652970131.0110242
0,2,11,59,14,-18,-2,3,1652970131.0110242
-6,-8,-18,-29,-16,-24,-1,-3,1652970131.0110242
-6,-7,-14,-17,22,-25,-8,-4,1652970131.0110242
0,-7,0,-16,-19,-4,-1,-1,1652970131.0110242
6,7,14,27,-18,6,4,1,1652970131.0239866
-13,-26,-5,7,40,-20,0,-2,1652970131.0239866
5,5,6,-2,-11,-28,1,3,1652970131.0239866
5,-1,-19,-92,-18,1,8,3,1652970131.0239866
37,19,1,-3,20,9,-4,-23,1652970131.0775585
-5,-23,-4,-7,-10,-24,3,29,1652970131.0775585
8,46,10,25,10,22,4,5,1652970131.0775585
-5,-8,1,24,6,-15,-4,15,1652970131.0775585
11,-13,-12,-17,-3,-70,-10,-38,1652970131.095567
-11,10,4,-1,-19,-67,-6,-14,1652970131.095567
3,-6,4,11,28,-40,0,-3,1652970131.095567
0,-3,-4,12,-15,-83,-4,-2,1652970131.095567
-8,-12,-7,5,28,-102,7,11,1652970131.145269
6,12,4,-35,-12,-18,4,-4,1652970131.145269
-5,-4,9,-4,-37,-19,-6,-3,1652970131.145269
6,9,4,67,6,77,3,-1,1652970131.145269
-12,-4,4,24,6,51,-3,9,1652970131.1631806
0,-4,-25,-33,9,55,2,0,1652970131.1631806
-12,-11,-10,-27,-18,18,-3,-4,1652970131.1631806
9,10,28,-18,12,33,-3,-3,1652970131.1631806
-6,3,-4,-24,-9,58,2,10,1652970131.1631806
-4,5,8,14,-9,74,-8,-9,1652970131.1631806
-6,-30,-12,-23,4,70,10,11,1652970131.1631806
43,6,-13,-9,20,44,-14,-2,1652970131.1631806
-40,16,4,-2,-10,33,-5,1,1652970131.1631806
14,-7,8,23,13,12,0,43,1652970131.1631806
-24,2,-7,13,-12,4,-20,-34,1652970131.1631806
0,11,4,6,7,16,0,-5,1652970131.1631806
1,-1,-3,-27,9,33,0,6,1652970131.1631806
1,2,-2,0,-39,18,12,1,1652970131.1631806
4,-12,6,19,19,5,5,1,1652970131.1631806
-14,-14,-23,7,-12,-25,2,2,1652970131.1631806
4,-2,-13,-33,-1,4,-2,-7,1652970131.1821165
-6,10,30,77,13,-42,-9,-17,1652970131.1821165
5,-5,14,-7,-29,-46,6,7,1652970131.1821165
-9,-7,-34,-54,30,-6,20,-2,1652970131.1821165
-3,-34,-9,32,-40,-120,-17,-9,1652970131.1970723
6,19,-54,24,20,-28,5,13,1652970131.1970723
10,33,65,-11,17,-21,9,4,1652970131.1970723
-10,4,25,45,6,34,-7,-2,1652970131.1970723
-1,-4,2,-78,-23,51,3,4,1652970131.2200096
-3,-11,-5,7,10,41,1,-4,1652970131.2200096
-2,-10,-33,-7,-20,14,-16,-6,1652970131.2259924
-7,-7,-9,2,3,23,-2,-3,1652970131.2259924
7,14,21,37,10,66,12,13,1652970131.2349374
-3,-8,8,10,-8,-54,-25,-11,1652970131.2349374
-2,-4,-21,10,6,-32,1,2,1652970131.2349374
-5,-2,-7,-68,-37,-126,-4,-6,1652970131.2349374
3,-3,-2,-3,19,-121,6,4,1652970131.2589068
-6,-8,-14,2,37,-57,5,-11,1652970131.2589068
5,3,-2,41,-13,-57,-2,3,1652970131.2589068
-2,11,29,49,-31,20,-2,0,1652970131.2589068
6,12,3,25,2,126,0,14,1652970131.2838078
-7,-7,6,-79,54,127,-4,-18,1652970131.2838078
-4,-12,-3,-45,-18,127,4,-8,1652970131.2838078
-4,-6,-15,57,36,101,-7,-7,1652970131.2838078
0,-2,-9,-45,-5,119,-2,-3,1652970131.2937796
1,-5,5,-6,-8,27,-2,2,1652970131.2937796
1,-2,-16,14,-15,111,3,5,1652970131.2937796
3,8,17,1,6,54,1,0,1652970131.2937796
-5,-4,-9,-51,-40,-55,-3,3,1652970131.3175023
-2,-2,-14,0,-3,-69,-6,-9,1652970131.3175023
0,18,47,31,14,-128,0,-3,1652970131.3175023
-3,-1,7,30,1,-36,2,3,1652970131.3175023
3,4,2,10,9,-53,1,-5,1652970131.337446
3,13,-2,73,-12,-58,-1,0,1652970131.337446
-2,-13,-23,-91,19,-13,-1,-1,1652970131.337446
-2,-16,-4,64,-51,24,-2,0,1652970131.337446
-1,15,5,6,17,50,1,-4,1652970131.3623803
4,-2,18,-40,-48,75,17,2,1652970131.3623803
1,4,-13,4,32,-2,-10,2,1652970131.3623803
-1,-8,12,8,42,47,-2,0,1652970131.3623803
-2,-3,1,26,-20,-24,-7,-7,1652970131.378338
-2,-5,-7,-33,-7,-56,6,4,1652970131.378338
-1,-8,-8,7,-5,34,-7,1,1652970131.378338
-7,-7,-10,-39,-20,-21,-3,-7,1652970131.378338
-8,11,6,29,29,30,-1,-2,1652970131.3992815
21,6,-4,-13,-12,46,-2,-3,1652970131.3992815
-7,5,1,-6,-5,18,4,4,1652970131.3992815
0,-2,-5,-6,2,-5,6,-2,1652970131.3992815
0,-1,2,34,7,-1,-2,3,1652970131.4132104
-7,-8,5,-22,-3,21,-7,1,1652970131.4132104
3,-6,-8,0,-46,30,10,-1,1652970131.42222
-2,4,0,59,32,-9,5,-1,1652970131.4242141
-3,-17,-20,-86,-1,20,1,-2,1652970131.4381764
-7,-7,-2,2,-34,0,-2,0,1652970131.4381764
-3,-13,4,4,6,-11,-4,-8,1652970131.4411356
5,21,-14,-23,26,-4,4,5,1652970131.4411356
4,-4,16,-18,-39,-8,-3,3,1652970131.4610827
-2,16,14,27,4,0,-6,-2,1652970131.4610827
1,-6,12,64,6,-3,3,2,1652970131.4866877
0,9,-5,-44,29,-20,-2,0,1652970131.4866877
-1,0,-5,2,1,-29,-9,-5,1652970131.4936628
-4,-2,6,4,0,14,-2,3,1652970131.4936628
-3,-2,-1,-2,5,20,-1,-1,1652970131.4936628
-4,-9,2,73,12,-7,-2,-3,1652970131.4936628
1,-1,-26,-70,11,-7,-1,4,1652970131.494658
-1,-1,4,-38,-42,-19,1,-2,1652970131.494658
0,5,6,26,5,-23,-4,0,1652970131.494658
2,-3,-24,-35,-7,2,-1,0,1652970131.494658
-3,5,37,43,5,-35,-2,-1,1652970131.5165977
-10,-17,-9,33,-4,-9,2,2,1652970131.5165977
6,7,-24,-46,14,-6,4,-9,1652970131.5165977
5,-13,-41,-27,-49,-60,-12,1,1652970131.5165977
2,6,-17,-6,20,3,5,1,1652970131.5325556
7,32,84,-7,7,17,8,4,1652970131.5325556
-5,0,5,127,19,5,-2,3,1652970131.5794423
2,-4,18,-46,-14,-26,-6,-1,1652970131.5794423
-9,-15,-29,-14,-16,1,-3,-8,1652970131.5904045
-5,-4,30,-36,16,-5,-6,-6,1652970131.5904045
-2,-5,-29,43,-28,-7,3,1,1652970131.5904045
-2,8,9,-64,29,40,5,-3,1652970131.5904045
3,-20,3,33,0,8,0,0,1652970131.5904045
-3,1,-35,-24,-27,-19,-7,-7,1652970131.5904045
-4,-8,9,23,16,-1,-4,-4,1652970131.5904045
7,5,-19,1,-8,0,8,3,1652970131.5904045
7,18,28,3,-4,-5,-1,3,1652970131.5904045
-3,-7,-29,-1,16,24,5,1,1652970131.5904045
0,18,20,-59,-22,-22,2,1,1652970131.607326
-19,-33,8,13,28,15,3,-3,1652970131.607326
7,-38,-6,28,-16,-21,-1,-2,1652970131.6143389
3,39,-9,73,36,51,1,-1,1652970131.6143389
-1,21,3,-71,64,35,-4,-5,1652970131.6143389
4,13,6,25,-35,27,1,0,1652970131.6143389
-11,-13,17,-25,-44,17,-4,-7,1652970131.641278
-9,-31,-21,-25,39,6,-8,-6,1652970131.641278
23,10,3,13,11,36,6,5,1652970131.6492465
-14,6,14,10,5,-45,-7,-1,1652970131.6492465
-7,13,-9,26,52,53,11,3,1652970131.6492465
-10,-25,-29,-47,-42,-50,-5,-2,1652970131.6492465
0,-21,11,22,-44,-5,-3,0,1652970131.65819
9,21,20,-36,-5,21,-2,-2,1652970131.65819
7,29,-18,18,-3,43,-2,1,1652970131.6731825
6,13,11,10,-7,106,4,4,1652970131.6731825
-38,-7,-30,-8,9,109,-3,0,1652970131.6811612
20,6,26,7,-20,127,5,5,1652970131.6811612
-10,4,-8,-30,-19,17,-5,-5,1652970131.700079
8,0,-9,56,-14,-17,-2,0,1652970131.700079
-3,-22,-13,-90,-2,-15,0,2,1652970131.706076
-12,-12,2,27,-1,-99,-6,-6,1652970131.706076
1,7,-5,12,52,45,10,-1,1652970131.7160752
-3,-15,26,-17,28,-9,-8,-7,1652970131.7160752
5,5,14,3,-41,9,-1,0,1652970131.7230177
-5,-19,-41,8,-7,26,-2,2,1652970131.725011
12,-10,3,-28,37,-1,-4,-4,1652970131.7330234
-35,-45,-1,-2,-15,0,-1,-4,1652970131.7330234
26,37,-11,-9,23,-86,-2,1,1652970131.7419987
-16,16,26,19,-9,-110,3,5,1652970131.7419987
10,19,16,32,-28,-128,-4,2,1652970131.7609477
39,5,-27,-10,24,-122,2,11,1652970131.7609477
13,12,-7,0,-16,-128,2,-22,1652970131.7609477
37,15,1,5,6,-63,6,-5,1652970131.7609477
-47,-10,1,26,-11,-97,8,21,1652970131.7689328
3,29,28,-11,-14,-60,3,3,1652970131.7768717
-11,-43,-14,24,22,60,-3,-2,1652970131.784885
-6,-15,-28,-30,-15,38,5,0,1652970131.784885
-6,-54,-4,-27,-1,16,-4,-18,1652970131.79283
4,45,-25,1,-43,9,0,0,1652970131.79283
-13,-15,28,106,39,-62,-1,5,1652970131.7998433
-10,7,45,-71,-27,-115,-6,-9,1652970131.7998433
24,-26,-18,-35,24,-53,0,4,1652970131.8207967
-60,-12,11,25,-9,-65,-8,-7,1652970131.8207967
34,21,-12,-50,18,-8,1,9,1652970131.8207967
-5,-77,-7,63,15,46,-8,-1,1652970131.8207967
-47,42,-3,-14,0,26,-1,-6,1652970131.8337212
58,40,-4,-14,18,106,9,2,1652970131.8337212
26,54,-1,13,-17,29,1,8,1652970131.8427284
-34,-36,6,7,-4,51,-1,-1,1652970131.844725
-18,23,-14,-6,-8,66,4,-2,1652970131.8527055
-9,-70,-23,-18,30,42,1,-17,1652970131.8527055
-43,10,-7,-54,-44,-39,-5,30,1652970131.8606825
57,29,21,7,37,72,15,18,1652970131.8606825
-17,-22,16,63,-21,14,-1,-2,1652970131.8796341
26,61,16,-53,-21,22,-16,-6,1652970131.8796341
2,-21,0,51,30,10,11,-3,1652970131.8876195
-9,-31,4,42,-45,-22,-9,-6,1652970131.8876195
61,28,-26,-15,32,27,7,1,1652970131.8935921
-11,-4,29,-15,-7,1,-9,6,1652970131.8955894
12,21,24,48,4,3,-10,1,1652970131.9045632
-36,-11,-62,-78,17,-8,-3,-23,1652970131.9045632
-20,-39,7,9,-10,-14,-10,-19,1652970131.9244788
8,-24,-13,95,0,20,17,9,1652970131.9244788
14,-12,-30,-116,-70,-8,-18,4,1652970131.9244788
-24,24,31,50,-13,12,0,-4,1652970131.9244788
6,35,14,-15,9,-19,-4,6,1652970131.9414325
-8,-54,-5,6,-3,-44,-16,-39,1652970131.9414325
-88,-23,20,35,-9,71,21,4,1652970131.9414325
65,25,-27,-31,73,-30,4,24,1652970131.9414325
-37,-53,-28,4,-6,38,-2,-2,1652970131.9624095
47,52,20,41,35,46,4,17,1652970131.9624095
4,-13,6,-26,-9,-12,-10,-30,1652970131.9624095
14,29,-10,-1,-9,20,-12,-5,1652970131.9624095
-19,-7,-1,15,-3,-36,-4,6,1652970131.972384
-14,-89,-19,-15,-13,9,12,1,1652970131.972384
31,74,-4,2,-21,-9,0,2,1652970131.984353
-50,30,-8,-70,-23,-4,-14,-10,1652970131.984353
20,-13,5,61,-44,-18,-5,-3,1652970131.998712
-76,-50,-4,-30,-14,26,13,18,1652970131.998712
96,27,-6,-59,16,-1,-13,22,1652970132.0017054
14,27,-18,-3,41,-1,16,15,1652970132.0017054
7,7,-15,-10,-39,-30,-15,-25,1652970132.0226402
-14,-15,-2,7,0,-6,12,4,1652970132.0226402
14,-41,8,95,60,74,8,-2,1652970132.0246408
-34,54,13,-74,-81,-93,-14,-22,1652970132.0246408
22,12,-12,-44,-53,-4,-26,-3,1652970132.0326192
-38,25,8,32,29,-7,-7,4,1652970132.0326192
-39,-77,2,-25,48,48,27,-15,1652970132.0445979
-19,-14,-21,45,-72,-45,-28,-41,1652970132.0445979
27,13,-16,-68,10,14,15,34,1652970132.0605443
75,67,-17,-60,38,24,-1,19,1652970132.0605443
5,15,61,71,-13,-112,-10,-19,1652970132.0605443
-64,-29,-3,32,46,74,56,39,1652970132.0605443
19,-14,-1,26,43,3,-30,1,1652970132.0876918
-21,-8,-17,-86,-28,-61,-31,-65,1652970132.0876918
49,77,-6,-19,-14,21,-9,50,1652970132.0876918
5,-47,-9,-13,10,12,32,13,1652970132.0876918
14,37,13,0,-22,-33,-2,27,1652970132.0956614
-33,-17,3,50,4,19,8,-12,1652970132.0956614
19,-78,-23,-2,-58,-20,-21,-26,1652970132.1046507
41,11,-58,-72,-70,-39,6,15,1652970132.1046507
41,77,34,46,96,122,42,18,1652970132.1206
15,-61,44,5,-16,-71,-22,-13,1652970132.1206
-43,59,-46,-13,-10,-108,-9,-24,1652970132.1206
12,-23,47,67,7,-4,-15,4,1652970132.1206
-54,-75,-59,-64,-3,-27,-2,-26,1652970132.1455278
67,48,5,100,48,39,10,9,1652970132.1455278
-121,13,11,-108,-24,55,4,2,1652970132.1475222
31,-44,33,88,84,109,-12,-8,1652970132.1475222
41,127,58,-2,-75,117,9,12,1652970132.1564662
27,-58,-23,-50,13,109,11,26,1652970132.1564662
-29,-128,-61,54,12,121,9,9,1652970132.164478
32,79,-10,-70,-68,-47,-19,-28,1652970132.164478
-50,-38,4,6,-45,-122,8,14,1652970132.1804345
-16,2,-15,11,16,-128,5,-12,1652970132.1804345
-42,-17,-54,-10,43,-126,6,-12,1652970132.1804345
-63,-23,33,-7,-39,-94,-8,-2,1652970132.1804345
78,-11,69,123,-14,-128,-9,8,1652970132.206367
-73,11,3,44,8,-128,2,-3,1652970132.206367
27,18,33,-82,-101,-106,-1,-1,1652970132.2083664
51,-21,5,75,92,-42,-10,-4,1652970132.2083664
-42,-20,-30,-91,14,-80,2,-12,1652970132.2163386
8,-16,-33,-31,50,112,-3,6,1652970132.2163386
17,-15,31,-40,26,105,8,-5,1652970132.22433
52,68,15,-8,-26,80,-3,16,1652970132.22433
15,8,20,33,25,38,-5,-8,1652970132.2412722
-15,20,-42,6,-17,-41,-4,1,1652970132.2412722
23,16,49,48,22,-50,0,5,1652970132.2412722
-48,-1,-4,10,-19,-36,3,-1,1652970132.2412722
11,-69,-3,-7,26,21,7,-16,1652970132.260222
31,68,5,10,-128,-68,-11,13,1652970132.261219
-32,-2,-11,123,-12,-14,-12,-1,1652970132.261219
22,-16,-20,127,23,16,4,-5,1652970132.261219
-40,-18,18,127,36,0,1,-20,1652970132.2761793
-13,-11,-5,65,51,4,22,6,1652970132.2761793
43,29,28,59,88,-39,-19,0,1652970132.284138
-48,-20,5,-39,76,-6,-10,-4,1652970132.284138
5,-8,-42,-117,-82,29,-14,-33,1652970132.3602648
12,6,-4,-118,-34,15,43,62,1652970132.3612666
-7,14,21,-48,31,-20,5,11,1652970132.3612666
-8,-34,-14,-128,-77,-18,-8,-10,1652970132.3612666
13,28,4,-117,12,9,12,21,1652970132.3612666
-5,25,25,-125,3,31,-7,-6,1652970132.3612666
-45,-30,1,-101,-18,47,1,-31,1652970132.3612666
24,14,-10,2,-10,14,-7,8,1652970132.3612666
5,-3,-18,82,32,-17,-5,-9,1652970132.3612666
3,-1,6,107,9,9,-6,-11,1652970132.3612666
-37,-24,-27,28,21,5,-1,3,1652970132.3612666
28,19,29,18,57,-30,4,1,1652970132.3612666
-30,-22,-13,-18,-16,1,-2,2,1652970132.370219
-1,-9,6,-54,2,9,-13,-2,1652970132.370219
-28,-13,-13,-47,-30,-100,4,-4,1652970132.370219
24,-36,-4,-37,0,-103,9,0,1652970132.370219
23,0,-12,19,4,-97,-5,12,1652970132.378199
-19,-19,27,61,21,39,-37,-57,1652970132.378199
33,30,-7,39,-22,84,25,-2,1652970132.3841496
-22,20,-2,72,-7,-63,2,31,1652970132.3871732
-27,7,-4,44,34,-96,23,9,1652970132.3951519
23,39,-6,50,-60,-128,-6,-2,1652970132.3951519
11,10,-9,10,-74,68,-18,-14,1652970132.4071412
2,12,7,47,26,112,2,-14,1652970132.4071412
-16,-2,-7,-38,9,127,-4,-6,1652970132.415103
-15,-6,-6,-5,-3,95,1,-6,1652970132.415103
17,2,0,31,9,-61,-8,-3,1652970132.4240758
-14,-21,-13,-23,-32,18,0,2,1652970132.4240758
22,-1,2,26,-19,-3,-4,-4,1652970132.4400356
-1,3,-6,3,-9,-26,10,3,1652970132.4400356
8,2,4,34,15,15,5,10,1652970132.4400356
0,-8,-20,-75,-30,31,-2,-6,1652970132.4400356
4,-6,29,64,8,26,-10,-5,1652970132.4549942
-16,-4,-3,-23,4,101,3,7,1652970132.4549942
30,0,3,19,27,113,1,7,1652970132.474941
-9,-11,-2,-20,-25,-32,-5,-12,1652970132.474941
-5,3,2,31,-3,-93,12,4,1652970132.4819226
7,-1,1,8,11,-128,3,5,1652970132.4819226
-14,3,0,7,-14,-128,-12,-1,1652970132.4819226
-3,-2,-10,8,18,-95,7,-3,1652970132.4819226
-8,-2,-6,-31,-11,-121,-9,1,1652970132.4978776
19,6,10,8,-2,-128,2,7,1652970132.4978776
-26,-7,-7,-14,3,-105,1,-6,1652970132.509856
20,4,-1,-9,-18,-79,-4,4,1652970132.509856
-12,-33,-10,-41,-30,14,-1,7,1652970132.5187929
16,18,-1,33,3,35,-25,-27,1652970132.5187929
-27,12,4,29,-4,22,36,17,1652970132.5277977
-16,5,3,-35,2,18,-21,3,1652970132.5277977
8,-4,-10,-8,21,53,6,11,1652970132.5357468
8,-12,-2,-27,-26,37,-4,-3,1652970132.5357468
0,-11,2,24,5,24,-10,-6,1652970132.5417607
-3,-6,-3,1,24,54,6,-3,1652970132.5437562
-1,6,0,1,-10,42,-1,-4,1652970132.562715
-2,-5,9,13,-6,18,-5,8,1652970132.562715
21,2,5,2,19,22,-2,-5,1652970132.562715
-10,-7,-4,-1,2,44,7,-1,1652970132.562715
6,-3,-6,12,7,12,-8,-7,1652970132.5776322
-18,-4,0,-12,-3,-15,8,3,1652970132.5776322
7,-6,4,11,12,9,0,2,1652970132.5876393
-4,0,-1,-5,5,13,-4,-3,1652970132.5876393
10,-6,-9,4,-2,-50,1,1,1652970132.595618
2,11,-4,-13,-33,-48,4,1,1652970132.595618
11,5,1,-16,9,-32,-10,0,1652970132.6045918
-5,-19,-2,18,-32,-4,-3,-2,1652970132.6045918
-11,31,7,-15,12,5,-2,-8,1652970132.6245487
-7,-6,-3,34,17,7,6,8,1652970132.6245487
2,-3,-4,-4,9,11,-4,2,1652970132.6245487
2,-3,-10,-28,-19,28,9,-3,1652970132.6245487
-11,-21,6,-11,-13,42,1,-3,1652970132.6325204
-3,-2,0,-10,1,42,-4,0,1652970132.6325204
5,11,-1,-12,-13,38,16,-12,1652970132.641493
9,6,4,32,12,30,-18,27,1652970132.641493
43,10,-9,-21,8,32,-1,-11,1652970132.6574504
-41,-4,-1,17,16,23,-1,0,1652970132.6574504
8,-18,-6,-32,-4,-1,-3,-2,1652970132.6574504
-14,7,-7,10,-9,-1,2,-16,1652970132.6574504
22,-1,7,14,19,4,0,15,1652970132.6853466
-11,-6,-3,-6,14,-4,0,-1,1652970132.6853466
4,1,-2,4,-1,-3,-3,-1,1652970132.6853466
-4,-1,0,-13,-22,-9,2,0,1652970132.6853466
-12,3,-6,-15,-8,-22,-8,-3,1652970132.6933558
12,-4,6,7,19,2,9,-4,1652970132.6933558
-8,-1,-7,-11,-21,-8,-2,8,1652970132.701301
8,3,9,12,20,8,3,-2,1652970132.701301
-12,-4,0,-8,-4,4,-19,-34,1652970132.7163322
-13,-7,-8,-42,-6,-8,24,11,1652970132.7163322
16,-5,0,31,24,-19,-13,14,1652970132.7292657
12,19,7,1,-7,-23,13,-2,1652970132.7292657
-18,-4,4,33,-1,-12,1,1,1652970132.7452555
11,4,8,34,15,-4,-5,-3,1652970132.7452555
-8,-6,-20,-82,-34,-11,-3,-9,1652970132.7522054
-3,-7,3,20,12,-3,-4,-18,1652970132.7522054
-11,0,-6,-15,-13,-37,0,30,1652970132.7542403
11,1,3,32,-2,-11,0,-21,1652970132.7542403
-11,-10,1,1,9,-20,-3,0,1652970132.76221
-7,10,9,2,20,29,0,-2,1652970132.76221
-7,-2,1,-21,-20,14,3,-3,1652970132.7821672
11,3,-4,-11,11,25,-3,9,1652970132.7821672
12,6,-4,7,-8,1,-4,-1,1652970132.7891378
-20,-8,-6,-13,-12,-8,-4,-5,1652970132.7891378
-9,4,2,18,24,37,8,0,1652970132.7981145
-1,-7,-6,-21,-5,12,-4,6,1652970132.7981145
-2,-1,4,23,5,40,-9,-13,1652970132.804099
5,0,-4,6,-7,25,1,4,1652970132.8060942
-2,1,4,29,31,59,5,4,1652970132.814109
-1,-8,-11,-47,-50,-15,-14,-10,1652970132.814109
0,-5,-12,6,-4,-25,16,10,1652970132.8220878
6,1,-6,19,-20,-10,-15,3,1652970132.8220878
-6,5,17,-32,33,-38,4,-2,1652970132.8410451
5,11,19,16,5,-36,-1,2,1652970132.8410451
-2,3,-4,-14,-2,-59,-2,-7,1652970132.8490157
-1,0,12,41,-12,-100,7,4,1652970132.8490157
-4,-5,-20,-45,-27,-115,0,-10,1652970132.862976
3,-5,-8,0,0,-50,-3,4,1652970132.862976
-6,-6,1,-8,10,-20,-6,0,1652970132.8659694
0,-5,-6,-8,6,-99,4,7,1652970132.8659694
0,5,4,19,6,-22,-6,-1,1652970132.88688
-1,-5,-4,-14,5,-6,-1,-1,1652970132.88688
-2,-1,-5,7,-15,37,-3,-3,1652970132.8948905
-1,-2,-8,-24,-12,63,-7,-11,1652970132.8948905
0,3,16,18,7,9,12,14,1652970132.8948905
-3,-5,-13,-1,-1,6,-1,2,1652970132.8948905
2,4,3,17,8,19,-2,2,1652970132.9038684
5,2,7,-15,37,40,5,3,1652970132.9038684
-7,-14,-26,-25,4,1,-8,-10,1652970132.9188128
0,0,6,-43,-12,31,-5,0,1652970132.9188128
0,3,16,19,-10,-21,-1,-4,1652970132.9268055
-1,1,-8,24,-2,-23,3,0,1652970132.9268055
2,4,14,12,-46,26,4,-2,1652970132.9467194
2,0,-15,-8,39,14,4,2,1652970132.9467194
-1,-4,-1,-7,-30,-2,3,4,1652970132.9467194
-2,-5,-7,0,-12,-15,7,-1,1652970132.9467194
-3,0,-17,-24,8,25,-8,-5,1652970132.9637108
-1,-1,22,11,-34,13,-5,-13,1652970132.9637108
-1,-1,-4,-22,10,38,2,8,1652970132.9637108
-2,-5,9,32,6,63,-1,2,1652970132.9637108
0,-2,4,9,0,39,2,0,1652970133.0169516
-2,-4,-14,-24,0,46,-1,-2,1652970133.0169516
6,-4,-25,-28,-4,31,5,0,1652970133.0169516
3,3,11,3,11,25,-4,-2,1652970133.0169516
-5,8,23,45,-31,0,-2,-5,1652970133.0419354
3,2,0,17,53,-16,9,3,1652970133.0419354
-3,-1,-2,-73,-59,-20,-1,-3,1652970133.0419354
0,-8,-31,-6,18,2,-4,0,1652970133.0419354
3,3,16,30,17,6,0,-6,1652970133.086585
0,8,36,52,3,8,0,13,1652970133.086585
-1,-3,-5,-36,10,30,15,-8,1652970133.086585
0,1,0,-30,-29,-54,-15,-5,1652970133.086585
-2,-2,-12,14,23,52,4,-1,1652970133.0975504
-2,-1,-9,22,-2,5,-5,-7,1652970133.0975504
-2,1,-1,5,14,7,-9,6,1652970133.0975504
-2,0,6,-10,-9,19,6,3,1652970133.0975504
-5,-6,-5,7,6,17,-2,-2,1652970133.0975504
-2,-5,-16,-19,-8,9,-1,-1,1652970133.0975504
9,12,14,34,8,-8,-5,-4,1652970133.0975504
1,1,0,-6,-16,23,-1,-2,1652970133.0975504
3,2,-5,-22,-4,-11,-6,-5,1652970133.0975504
-1,-2,-8,-22,-26,-5,7,11,1652970133.0975504
-4,-4,0,22,15,-15,1,3,1652970133.0975504
2,-1,8,30,26,-10,2,1,1652970133.0975504
-4,-11,-7,-26,3,-15,-14,-15,1652970133.1055279
1,4,-3,-6,-19,-10,4,13,1652970133.1055279
-4,4,8,15,14,-8,2,-26,1652970133.1055279
0,1,-1,28,-8,10,-13,6,1652970133.1055279
2,-1,-1,-52,-21,1,1,0,1652970133.159632
-6,-8,-7,1,24,-4,-9,-6,1652970133.159632
3,-1,-2,-20,-28,13,4,16,1652970133.1715922
-8,-4,-6,-40,-6,13,-4,-5,1652970133.1715922
1,-1,-5,32,-27,-22,-3,0,1652970133.1715922
1,1,-6,-6,-34,11,3,-8,1652970133.1715922
-3,-3,-1,35,64,2,-3,-3,1652970133.1715922
1,2,33,15,-7,-18,5,15,1652970133.1715922
0,-1,-8,22,-20,11,-1,9,1652970133.1715922
-1,-1,-6,-2,22,3,3,3,1652970133.1715922
-2,-2,-3,9,-12,-4,-6,-4,1652970133.1715922
-3,-2,-10,-30,14,6,5,-6,1652970133.1715922
-4,-2,5,-1,24,-2,2,5,1652970133.1825614
-2,-2,-2,17,-7,-10,-6,-10,1652970133.1825614
4,1,-6,-23,1,-4,0,3,1652970133.1825614
0,-2,-4,-5,5,-4,-1,-5,1652970133.1825614
0,-1,-4,-4,-7,-11,5,0,1652970133.1985176
-4,-3,-4,17,-6,-7,-4,-5,1652970133.236529
0,3,11,-36,-5,-7,-3,3,1652970133.2494948
-1,-2,-15,-19,3,-3,3,-2,1652970133.2494948
-4,-2,2,20,4,-16,-1,-5,1652970133.2494948
3,1,1,-22,-7,-5,3,2,1652970133.2494948
-1,1,13,47,-8,-6,-3,-1,1652970133.2494948
-2,0,0,-24,20,10,11,1,1652970133.2494948
2,2,-3,25,3,5,1,2,1652970133.2494948
0,-1,0,10,2,-25,-8,-1,1652970133.2494948
-2,-3,-9,10,24,-8,-2,-1,1652970133.2494948
1,4,11,25,7,-2,2,-2,1652970133.2494948
0,-2,-2,1,-9,-12,-2,11,1652970133.2634153
-8,-7,-5,-43,10,13,-5,-22,1652970133.2634153
-6,-5,-10,-20,-14,-4,1,1,1652970133.2714255
-2,-4,-6,-10,-2,-13,-5,-4,1652970133.2714255
2,4,-1,-13,-1,12,6,-1,1652970133.2783754
4,4,10,21,1,-12,-9,4,1652970133.2783754
4,1,-1,14,7,0,1,3,1652970133.2853591
0,-1,-1,-42,-17,0,-4,0,1652970133.2853591
-5,-3,-8,54,-2,-11,0,-8,1652970133.3073297
-2,0,-2,-47,-13,9,3,2,1652970133.308328
-1,2,6,13,20,-1,0,-3,1652970133.308328
-3,0,-2,26,2,1,-2,-1,1652970133.308328
1,-2,-1,-57,-17,-2,-2,-2,1652970133.3148894
0,-1,1,26,-5,-14,2,3,1652970133.3148894
2,-4,-5,-16,-12,7,3,1,1652970133.323861
0,-2,-2,12,6,3,-3,-2,1652970133.323861
-3,-1,-4,-20,28,-3,-2,-9,1652970133.3398194
-1,-1,5,36,30,-3,-1,11,1652970133.3398194
2,5,8,15,-11,-4,-2,4,1652970133.3398194
-2,-1,-6,1,-13,1,0,1,1652970133.3398194
0,-2,-2,-15,0,7,7,1,1652970133.3667471
2,0,3,3,8,-9,-1,-3,1652970133.3667471
-2,-4,-4,7,-16,5,-1,2,1652970133.3667471
-4,-1,-3,-3,-4,-2,4,-10,1652970133.3667471
1,1,0,-26,-16,-17,-3,0,1652970133.3760762
-1,-2,-2,5,9,2,1,-5,1652970133.3760762
-2,-2,0,13,27,-9,-7,-2,1652970133.3830934
0,-1,-7,15,0,3,-2,-2,1652970133.3830934
0,2,15,28,1,6,1,3,1652970133.4369874
-1,-1,10,-7,-4,-4,1,-1,1652970133.4369874
-1,0,-1,-23,-7,14,1,-2,1652970133.4599297
1,7,16,24,-10,-8,-1,1,1652970133.4599297
0,0,-2,-3,-7,-5,-5,0,1652970133.4599297
-4,-4,-15,-50,-15,7,-4,0,1652970133.4599297
-1,-4,-3,13,27,-1,0,-5,1652970133.4599297
0,-7,-10,-21,-20,-15,-4,-2,1652970133.4599297
-2,3,1,21,-3,0,1,1,1652970133.4599297
0,-1,-1,13,10,-3,0,-2,1652970133.4599297
-3,-3,-5,-25,-28,-3,2,-1,1652970133.4719386
-2,-1,4,32,35,7,-2,-1,1652970133.4719386
-1,-3,-11,-16,-12,-12,-4,0,1652970133.480873
2,2,-4,10,-7,4,-3,0,1652970133.480873
0,4,9,-24,14,8,2,-1,1652970133.4838645
-2,-2,-4,75,-18,-10,-1,1,1652970133.4838645
-2,-4,-3,-25,5,13,13,2,1652970133.506212
0,2,-1,-3,32,-1,-2,-1,1652970133.506212
-1,-2,4,-21,-44,-6,-3,0,1652970133.506212
0,1,11,-12,0,9,1,-1,1652970133.506212
-4,-3,-5,-5,-8,-2,0,0,1652970133.5174594
-2,-2,-5,9,-4,1,1,-1,1652970133.5174594
-1,-2,-7,4,-8,-13,-2,-3,1652970133.5174594
2,3,3,-17,-7,-8,0,1,1652970133.5174594
-1,-1,-1,15,22,11,-1,-1,1652970133.5264168
0,-2,-3,-5,-13,0,-1,0,1652970133.5264168
-3,-2,-2,23,5,-9,-3,-1,1652970133.5264168
-2,-3,-8,-38,-4,-6,-2,-1,1652970133.5264168
2,1,5,-11,22,3,0,0,1652970133.54716
-2,-3,-6,12,-10,-11,-4,-2,1652970133.54716
0,-5,-13,24,-1,26,4,0,1652970133.5782685
-1,-5,-1,-3,-2,-11,-6,-2,1652970133.5782685
-1,2,30,-11,-5,-4,-3,-1,1652970133.58026
0,4,6,-35,6,-5,0,-2,1652970133.58026
2,2,10,31,-33,-17,-7,1,1652970133.58026
-1,-2,-6,-20,12,6,-3,-2,1652970133.58026
1,3,-8,12,4,-8,-4,-2,1652970133.6065946
1,-2,-10,-11,-16,3,4,1,1652970133.6065946
-2,-1,4,16,14,-4,-4,-3,1652970133.6065946
-1,-1,-3,-8,-8,4,-1,-2,1652970133.6065946
-3,-4,-7,-12,-30,-7,-3,-1,1652970133.6255498
-3,-3,0,15,-12,5,2,-3,1652970133.6255498
-1,-1,-8,-21,3,-3,1,-2,1652970133.6255498
4,2,0,-2,-3,1,2,1,1652970133.6255498
0,-2,-2,-6,9,2,-1,0,1652970133.673067
1,-1,-5,-6,0,-2,-3,0,1652970133.673067
-4,-1,-11,-39,-2,1,-1,0,1652970133.6790504
-2,-3,0,-3,-9,-9,-2,-1,1652970133.6790504
3,2,6,-4,19,3,0,2,1652970133.6810782
2,0,2,71,-26,7,3,1,1652970133.6810782
0,0,3,1,13,-1,0,0,1652970133.6810782
-1,-2,-10,-15,-22,5,1,-2,1652970133.6810782
-1,3,-11,-11,-15,2,-7,-2,1652970133.6810782
-1,-5,-1,-2,-2,10,8,0,1652970133.6810782
0,-2,0,3,34,11,-2,-2,1652970133.6810782
-2,-1,2,6,6,3,0,0,1652970133.6810782
-1,-6,-8,4,6,-9,0,-1,1652970133.6810782
-1,2,4,-3,24,18,2,2,1652970133.6810782
-4,-2,4,14,-21,-9,-2,-3,1652970133.7153332
-1,-4,-9,-26,11,-1,0,0,1652970133.7153332
1,1,1,0,-17,3,0,0,1652970133.7192879
1,3,0,-22,12,-1,-1,3,1652970133.7192879
-5,0,12,61,20,-8,-5,-2,1652970133.7192879
2,4,10,35,14,0,2,1,1652970133.7192879
-2,-5,-16,-76,-27,3,4,6,1652970133.7272975
2,1,-2,-12,-38,-12,0,-3,1652970133.7272975
-2,-3,-5,-27,7,3,-8,-7,1652970133.7272975
-3,1,7,28,34,-3,-3,-3,1652970133.7272975
0,2,3,14,0,-1,0,-1,1652970133.7352839
0,0,0,-12,34,5,-1,2,1652970133.7352839
-4,-2,-6,-21,-40,-24,-1,0,1652970133.7432659
0,-3,1,-11,-5,15,-1,0,1652970133.7432659
1,-1,1,32,11,4,2,-1,1652970133.8021443
1,1,2,15,-23,-9,-6,0,1652970133.8021443
3,3,7,21,29,8,5,1,1652970133.8021443
-3,-2,-8,-41,-9,-1,2,6,1652970133.8021443
-3,-1,-5,4,-32,-3,-5,4,1652970133.8021443
-1,1,8,1,8,2,0,-11,1652970133.8021443
-3,1,-2,1,-12,-3,10,6,1652970133.8021443
-4,-4,-4,-28,17,4,0,-3,1652970133.8021443
0,0,5,50,44,-2,-3,4,1652970133.8220859
0,-1,0,10,-18,-1,-8,-2,1652970133.8220859
1,0,-6,-25,-4,10,2,-2,1652970133.8270626
-1,2,-1,-1,11,-4,0,2,1652970133.8270626
-3,-4,-1,6,27,-10,-6,-8,1652970133.8290548
-8,-8,-6,-23,-61,-15,0,0,1652970133.8300555
1,0,-2,38,-3,2,-1,0,1652970133.8300555
-1,-1,-7,-69,-39,-4,-1,-2,1652970133.8300555
3,0,7,69,42,1,-1,-6,1652970133.8883636
-1,4,1,-21,13,6,1,1,1652970133.8883636
-2,-2,0,-4,-13,-8,-2,2,1652970133.8883636
3,2,4,18,34,6,-3,-2,1652970133.8883636
-6,-3,-6,-32,-56,-17,-4,-7,1652970133.8963022
2,-1,4,58,21,13,3,4,1652970133.8963022
-1,-3,-17,-52,35,4,-4,-4,1652970133.8963022
1,4,14,29,6,-15,-7,-2,1652970133.8963022
-3,-4,-7,-30,-15,-9,3,-3,1652970133.8963022
1,2,21,33,46,14,-1,2,1652970133.8963022
-2,-3,-2,-51,-35,-10,-5,-3,1652970133.90727
-4,-4,2,57,-10,5,0,-4,1652970133.90727
-1,-3,-5,26,-7,8,3,0,1652970133.9304354
-3,-1,-13,-48,6,-16,-6,-2,1652970133.9304354
3,6,-1,-47,-5,5,0,3,1652970133.9304354
-2,-5,-9,-8,-20,-10,-1,-1,1652970133.9304354
0,0,7,-19,-31,0,-2,0,1652970133.9413972
0,-3,-12,5,19,-6,1,0,1652970133.9413972
2,0,5,41,24,23,5,-3,1652970133.9413972
-4,0,-2,-17,-60,-18,-3,-4,1652970133.9413972
-1,-1,-2,-8,42,-2,1,0,1652970133.9413972
-3,-6,-8,-23,-19,11,-5,-2,1652970133.9413972
0,6,9,46,-6,-10,1,2,1652970133.9413972
-1,0,-1,41,49,27,-1,0,1652970133.9413972
0,-4,-5,-58,-47,-3,-2,-2,1652970134.0040696
2,-3,-2,-34,-37,-2,2,0,1652970134.0040696
1,1,11,26,38,-9,-3,1,1652970134.0040696
-1,3,2,27,-5,-11,0,-3,1652970134.0040696
2,7,1,64,64,27,1,1,1652970134.0040696
-1,1,3,-79,-31,-8,-2,-1,1652970134.0040696
-2,-7,-10,-5,-23,-36,-1,0,1652970134.0040696
-1,-3,-3,0,27,29,2,0,1652970134.0040696
0,-1,-2,11,-22,-22,-3,1,1652970134.0040696
0,-1,-8,-26,15,-13,1,-4,1652970134.0040696
-3,-5,-3,5,-14,-12,-3,-3,1652970134.0291927
-1,-1,2,-31,5,1,-3,3,1652970134.0291927
0,-4,-6,-60,-13,14,3,-3,1652970134.0411124
-1,-1,4,65,8,11,0,-3,1652970134.0411124
2,1,7,15,-19,-3,-3,1,1652970134.0411124
1,5,-1,-33,18,-8,-2,0,1652970134.0411124
-2,3,5,13,-16,0,-10,-2,1652970134.0697691
0,2,4,48,-5,-7,0,7,1652970134.0697691
-3,-4,-6,-49,-7,12,-2,2,1652970134.0697691
-2,-4,0,48,6,3,7,-6,1652970134.0697691
-1,-1,-3,-46,-13,-2,-2,1,1652970134.0697691
-4,-6,-11,-31,0,5,1,-6,1652970134.0697691
-1,-1,-10,-4,27,8,-6,3,1652970134.0697691
2,2,0,-15,-23,-29,-3,5,1652970134.0697691
-2,1,13,59,22,10,4,-3,1652970134.0857267
1,-4,-7,-8,-47,-5,-2,1,1652970134.095147
-2,2,7,23,19,16,1,-3,1652970134.095147
-1,-5,-12,-45,-42,-32,-2,-1,1652970134.095147
-2,-1,2,13,60,29,2,0,1652970134.1286697
2,6,2,-6,-14,-18,-3,0,1652970134.1286697
-2,-4,1,2,21,9,1,-3,1652970134.1425893
-1,-1,4,9,-1,8,0,-2,1652970134.1425893
-1,-2,-3,1,-40,-40,-3,2,1652970134.1425893
2,1,2,13,36,19,2,0,1652970134.1425893
2,-1,-2,-5,-7,-5,0,0,1652970134.162028
-1,4,4,33,12,7,-2,-2,1652970134.162028
1,-2,-4,-28,-16,3,-1,1,1652970134.162028
-3,0,-2,-26,22,-4,-1,-5,1652970134.162028
0,0,-5,16,-31,-14,-1,0,1652970134.1730313
0,-3,2,14,14,2,4,2,1652970134.1730313
0,0,-4,-5,-15,-14,-6,-3,1652970134.1730313
-1,1,6,36,34,-6,-9,-1,1652970134.1730313
-2,-4,-12,-46,-41,18,2,-3,1652970134.1730313
-3,-4,3,6,22,-21,0,-4,1652970134.1730313
-2,-2,-16,-53,-3,23,4,-4,1652970134.1830037
-3,-3,-1,57,-23,-19,-3,-2,1652970134.1830037
1,1,6,35,-39,-18,-4,-1,1652970134.2028193
-1,-4,-5,-32,56,37,-6,-3,1652970134.2028193
0,3,10,-2,47,5,3,-1,1652970134.2037811
1,1,-13,-14,4,20,1,3,1652970134.2037811
-2,0,9,-9,14,-5,1,-3,1652970134.2281268
0,-2,-12,-10,-44,4,0,0,1652970134.2281268
0,-3,-7,-31,10,-12,-3,-2,1652970134.241113
-2,3,21,30,26,-13,0,-1,1652970134.241113
-3,-5,-15,-32,-34,-10,-1,-1,1652970134.241113
-1,-9,-4,51,30,-7,-2,-2,1652970134.241113
-1,5,-1,-44,-22,8,0,-2,1652970134.241113
1,5,-7,-26,-9,22,6,0,1652970134.241113
-1,0,9,31,21,-13,-1,-2,1652970134.294173
0,0,0,-16,12,1,-5,-2,1652970134.294173
1,-2,8,45,-69,-12,-5,-2,1652970134.306121
0,-1,2,-3,-34,-7,-2,-3,1652970134.306121
1,4,1,38,44,8,-2,2,1652970134.306121
-2,-4,-13,-78,-61,0,-1,10,1652970134.306121
-2,-3,-3,43,25,-17,-8,-23,1652970134.306121
-4,-4,-2,-14,-21,-7,4,-4,1652970134.306121
-1,1,-3,-22,20,15,2,-1,1652970134.306121
-1,4,11,35,-17,-12,-1,3,1652970134.306121
-5,-8,-13,-50,28,-5,-1,2,1652970134.306121
0,-1,-2,23,10,51,-1,0,1652970134.306121
1,0,-2,-38,23,18,1,0,1652970134.3354788
3,7,29,75,5,-5,3,0,1652970134.3354788
-3,-6,-11,-36,3,4,-2,4,1652970134.3354788
-1,-6,0,-8,27,-8,-1,-4,1652970134.3354788
2,2,-2,65,-25,-4,3,3,1652970134.3354788
-1,3,6,-58,13,12,1,-4,1652970134.3354788
-1,-2,4,17,-37,-16,-3,2,1652970134.369867
0,-2,-5,-13,-5,-21,0,2,1652970134.369867
1,2,9,56,-17,-15,-3,-1,1652970134.369867
-2,-7,-23,-106,-22,14,3,0,1652970134.369867
-2,-3,-4,62,-1,-44,-5,0,1652970134.369867
-4,-5,-4,-5,8,-8,-4,0,1652970134.369867
3,4,7,-17,10,2,1,0,1652970134.369867
-1,0,-1,75,-33,-8,4,0,1652970134.369867
-1,-1,0,-21,25,22,9,1,1652970134.3858123
0,0,-1,2,-33,4,1,1,1652970134.3858123
-3,1,2,-8,-11,-50,-8,-2,1652970134.3948915
0,-1,-6,-23,-13,-7,4,-2,1652970134.3948915
3,3,-1,-23,-39,-18,5,16,1652970134.4361281
-7,-8,-14,-27,23,0,-4,-25,1652970134.4361281
0,-1,7,19,-8,6,-2,-4,1652970134.4361281
-2,-2,-14,-42,-44,-17,-9,-4,1652970134.4361281
0,-1,-3,20,27,3,1,3,1652970134.4361281
1,4,21,52,3,-16,-2,6,1652970134.4361281
-2,-4,-15,-17,-4,5,2,2,1652970134.4361281
-1,-5,-6,19,22,-3,-9,-4,1652970134.4361281
0,9,15,30,5,32,4,1,1652970134.4764884
-1,-7,-12,-115,-24,-15,1,3,1652970134.4764884
-2,-11,0,9,27,21,0,-5,1652970134.4764884
-3,-3,-9,-7,-28,-4,-1,-1,1652970134.4764884
4,10,19,37,16,12,5,2,1652970134.4764884
0,3,13,102,37,-6,-10,-1,1652970134.4764884
-3,-12,-31,-84,-50,19,0,2,1652970134.4764884
-1,-5,-8,-30,15,16,2,-4,1652970134.4764884
0,4,-6,-15,33,14,-1,-2,1652970134.4914396
2,7,13,2,-24,-24,-12,-9,1652970134.4914396
1,1,17,21,4,3,8,23,1652970134.4914396
-3,-4,-6,44,17,2,-6,-13,1652970134.4914396
-3,-5,-8,-53,-2,-15,-18,-12,1652970134.5034204
-6,-3,0,3,-5,14,2,-49,1652970134.5034204
-2,-5,-14,-11,5,10,36,35,1652970134.5034204
8,5,8,-3,42,4,-16,21,1652970134.5034204
2,0,6,45,2,1,18,5,1652970134.581507
2,2,-4,5,1,12,6,21,1652970134.581507
0,5,5,-49,-39,-32,-9,-18,1652970134.581507
-2,1,5,34,31,17,7,8,1652970134.581507
-2,-5,-4,-9,-28,-40,-5,-6,1652970134.581507
-1,-4,-7,71,3,2,-2,6,1652970134.581507
-2,0,-9,-87,-44,4,-7,-9,1652970134.581507
1,4,12,55,15,-5,-2,-2,1652970134.581507
1,-1,-4,-8,-43,7,-7,-3,1652970134.6242776
-2,-1,-8,-85,-15,-19,2,4,1652970134.6242776
-3,2,4,39,41,13,-6,-4,1652970134.6242776
-3,-4,-9,-12,22,-15,-2,-13,1652970134.6242776
-4,-8,-5,11,12,14,2,-4,1652970134.640177
1,4,6,17,-3,-6,-4,11,1652970134.640177
-2,2,-4,-32,-32,-7,-12,-12,1652970134.640177
-1,6,20,-22,15,3,1,-3,1652970134.640177
-2,-1,1,18,11,-5,-1,5,1652970134.640177
3,-2,8,53,-6,0,1,9,1652970134.640177
0,-2,-8,-16,-2,-2,-8,-2,1652970134.640177
-4,-1,-6,0,20,3,7,-2,1652970134.640177
-1,-5,-4,-5,-27,-3,0,-7,1652970134.640177
0,1,1,18,32,2,-4,-3,1652970134.640177
-1,-3,0,25,32,13,-1,-10,1652970134.640177
0,-2,-12,-59,-22,-6,6,6,1652970134.640177
0,1,4,16,5,38,-3,-7,1652970134.658091
4,1,-11,-78,-17,3,14,28,1652970134.658091
1,3,12,82,30,-7,-2,3,1652970134.658091
0,1,7,-13,2,7,2,7,1652970134.658091
-2,0,3,55,-15,0,3,-8,1652970134.658091
-2,0,6,51,73,-9,-4,-6,1652970134.6750457
-1,-1,-6,-41,-52,2,-9,-6,1652970134.6750457
-3,-4,2,39,9,3,-2,-6,1652970134.6750457
-2,-2,-8,-32,-27,-7,-1,0,1652970134.6910028
0,1,1,16,-65,20,3,2,1652970134.6910028
0,-1,-6,-17,43,-49,-7,-2,1652970134.7059925
1,2,-5,-7,-37,-2,-4,-7,1652970134.7059925
2,4,18,45,26,4,-1,17,1652970134.7059925
-5,-7,-12,-75,3,-4,1,-24,1652970134.7059925
-1,-1,-3,0,-9,6,2,-2,1652970134.7059925
-4,-7,-11,-13,-41,-3,4,-2,1652970134.7059925
-2,-5,-7,-5,7,-13,-14,-6,1652970134.7189627
3,9,1,7,-10,1,-2,5,1652970134.7249463
4,-6,-10,17,40,-7,4,1,1652970134.727936
1,11,27,-18,-29,6,-3,1,1652970134.727936
5,-2,-32,10,-40,-11,8,11,1652970134.742899
-5,1,13,22,27,19,-5,-5,1652970134.742899
-2,10,18,38,34,15,-3,-5,1652970134.7498753
-1,-5,-14,-47,-11,-39,-2,2,1652970134.7498753
-2,0,-8,-38,39,60,8,-2,1652970134.7658362
-3,0,17,-14,-31,-42,-9,-2,1652970134.7658362
-4,-10,-14,51,-1,26,2,-4,1652970134.7658362
0,2,-2,10,0,-8,0,-2,1652970134.7658362
-2,-4,3,-6,52,15,1,-2,1652970134.8180318
-2,-5,-24,1,-46,-5,-2,0,1652970134.8209872
-7,-8,14,-1,2,-1,-1,-1,1652970134.8209872
-4,-11,3,2,-18,6,0,-3,1652970134.8209872
7,-6,-15,3,8,-11,-2,2,1652970134.8209872
5,15,-5,16,37,15,7,9,1652970134.8209872
1,18,12,-60,-17,-11,-3,1,1652970134.8209872
7,9,7,20,1,11,-2,0,1652970134.8209872
-1,-3,9,-3,-3,-16,6,1,1652970134.8491683
-7,-13,-6,-51,-3,-9,-4,-7,1652970134.8511634
0,14,-2,6,-8,12,-1,-1,1652970134.8511634
-6,-8,0,22,15,0,0,-5,1652970134.8511634
0,0,5,-7,-2,-17,-14,-10,1652970134.8511634
-9,-13,-9,1,-16,-3,-2,-16,1652970134.8511634
-17,-17,-6,-11,25,15,-4,-1,1652970134.8511634
9,3,-10,1,-2,10,0,1,1652970134.8511634
5,9,3,-8,16,-12,11,20,1652970134.8824153
7,-3,-5,-39,-50,4,5,10,1652970134.8824153
2,5,12,74,1,-6,3,-5,1652970134.884443
-4,-3,-9,-41,17,14,1,-1,1652970134.884443
0,4,-3,-25,-12,0,-8,-10,1652970134.9100668
-5,4,9,2,27,4,-9,-6,1652970134.9100668
9,-14,-2,-2,-17,-3,9,26,1652970134.9100668
-12,-10,-6,24,-3,-1,-7,15,1652970134.9100668
8,29,7,16,-6,0,13,0,1652970134.917883
-4,-5,-19,-77,12,0,1,8,1652970134.917883
8,-1,10,9,-16,14,1,-7,1652970134.917883
-1,-3,11,43,8,-27,-3,-6,1652970134.917883
-11,-12,-7,8,-10,5,-4,1,1652970134.9238656
2,-7,-35,-24,-27,30,1,1,1652970134.9238656
-7,0,-2,-27,2,-38,-10,-10,1652970134.930847
0,0,-1,-17,-13,2,2,-7,1652970134.930847
-3,17,97,30,13,0,-3,-4,1652970134.9468043
4,2,-9,75,5,-37,-7,-6,1652970134.9468043
1,-2,-4,4,55,6,0,-4,1652970134.9487991
-2,1,-18,16,3,28,1,0,1652970134.9487991
-11,-25,-42,76,14,42,12,3,1652970134.9767244
16,-9,11,-80,-56,-65,-15,1,1652970134.9767244
-14,14,18,2,43,11,0,0,1652970134.9767244
22,24,-14,-74,-108,-46,0,2,1652970134.9767244
-22,-36,-19,22,-4,34,-10,-12,1652970135.012097
-11,-68,-28,54,30,17,7,-3,1652970135.012097
3,70,4,-2,15,17,4,5,1652970135.012097
11,44,29,8,12,39,5,-8,1652970135.012097
-3,-1,-4,-61,-16,-46,8,8,1652970135.012097
15,-9,60,24,-7,15,5,3,1652970135.012097
1,-44,-88,30,-21,-36,-8,-3,1652970135.012097
-11,31,-50,-2,-23,3,1,-2,1652970135.012097
-1,19,97,-60,-42,-33,-24,-18,1652970135.0280538
-13,-30,-7,12,78,29,2,4,1652970135.0280538
-11,-23,-7,3,13,11,-5,-12,1652970135.0280538
5,-15,-10,26,25,0,-5,3,1652970135.0280538
20,-18,-50,72,14,31,5,7,1652970135.04401
-22,22,27,-27,-50,-13,-2,-9,1652970135.04401
-9,-20,-18,-11,-30,-24,2,-2,1652970135.0519905
-22,-48,-14,-37,66,33,2,-7,1652970135.0519905
42,63,1,-26,3,10,6,11,1652970135.070939
10,36,-7,-10,1,-6,-11,0,1652970135.070939
20,0,26,41,34,8,20,4,1652970135.070939
9,28,54,49,-19,-7,-13,3,1652970135.070939
5,-27,-43,-65,-49,-56,-11,-5,1652970135.0878608
-21,28,-12,33,17,32,5,3,1652970135.0878608
-17,-52,-21,-70,-59,-32,-15,-39,1652970135.0958738
-19,16,43,59,63,32,4,15,1652970135.0958738
-2,-26,38,61,31,23,-4,-3,1652970135.103818
-23,-9,-49,-15,11,44,6,1,1652970135.1421752
-9,-19,34,-58,-63,24,-7,-1,1652970135.155175
-21,-13,-13,17,44,34,6,-14,1652970135.155175
6,10,-36,-1,8,61,-10,13,1652970135.155175
16,-13,9,-5,8,-21,13,1,1652970135.155175
70,33,17,11,23,40,-1,12,1652970135.155175
-16,-29,2,34,-8,-28,2,4,1652970135.155175
5,25,8,-42,-7,-36,9,15,1652970135.1756608
11,21,4,31,-6,-7,-12,-20,1652970135.1756608
-25,32,-33,-80,-27,-25,3,6,1652970135.1756608
3,-34,-31,12,-49,-45,-1,-7,1652970135.1756608
-11,7,28,20,-42,-50,-8,-10,1652970135.1835053
18,7,26,27,59,-39,6,13,1652970135.1835053
-17,-17,5,52,36,13,-7,4,1652970135.1835053
-14,-19,-30,-113,-35,-20,-9,-24,1652970135.1835053
5,-27,-26,37,49,0,-6,9,1652970135.1835053
2,-4,-33,-62,-74,-54,-10,9,1652970135.1835053
-6,3,53,51,-3,17,7,4,1652970135.1894958
41,27,7,20,-18,-65,-9,-13,1652970135.191487
-36,-29,-1,-22,50,40,0,13,1652970135.2134302
-20,44,-4,-19,-16,8,17,-7,1652970135.2134302
-41,-51,-13,70,20,-18,13,2,1652970135.218384
34,52,-25,-57,3,60,16,-16,1652970135.218384
6,24,14,-36,8,-53,-33,12,1652970135.2204106
9,2,17,76,-16,33,1,16,1652970135.2204106
30,-23,7,-12,36,55,3,17,1652970135.2323916
-31,-9,-22,-22,-21,-46,-4,-18,1652970135.2323916
13,-23,-28,-20,13,-16,-13,-26,1652970135.2473376
-31,63,16,-46,-7,13,11,28,1652970135.2473376
-20,-21,3,75,29,-5,1,-3,1652970135.2473376
-17,-6,8,-32,25,2,-5,14,1652970135.2473376
4,-15,16,48,-30,-7,24,-16,1652970135.270277
33,-49,-4,-10,4,-91,-22,-21,1652970135.270277
-41,4,-51,-86,-68,18,-6,-14,1652970135.270277
33,22,28,34,23,51,9,11,1652970135.270277
17,8,-13,-11,-54,-107,-11,2,1652970135.2902246
-40,-42,16,48,52,50,-5,-17,1652970135.2902246
5,34,26,-33,-41,33,5,-9,1652970135.2912261
2,-111,-27,-28,-55,11,5,43,1652970135.2912261
55,107,-12,-39,-49,34,3,-5,1652970135.306182
-4,-13,-8,7,72,22,7,12,1652970135.306182
11,33,34,9,38,24,5,-37,1652970135.306182
-17,-19,17,28,24,28,-19,3,1652970135.306182
-87,-83,-38,-45,-54,58,-3,-3,1652970135.3281257
56,10,-33,42,9,114,9,3,1652970135.3281257
33,46,26,-16,-14,70,1,21,1652970135.3281257
30,-49,-70,-33,-6,76,-1,-4,1652970135.3281257
-6,80,34,109,59,81,9,-9,1652970135.341097
-24,30,86,-47,-68,68,5,4,1652970135.3470714
-20,-46,-9,-9,-33,55,-10,3,1652970135.3745985
59,17,87,69,3,26,1,6,1652970135.3745985
-3,-8,-128,-122,-10,66,5,-4,1652970135.3825815
-2,-23,2,43,20,-2,-4,-9,1652970135.3825815
40,103,105,57,95,-79,10,15,1652970135.3825815
-12,-6,17,16,-68,-72,16,6,1652970135.3825815
-11,-62,18,33,11,-76,-13,-19,1652970135.3915575
-83,-41,-92,-75,56,-74,-20,-31,1652970135.3915575
26,-51,-68,-78,-82,-98,5,15,1652970135.3915575
-66,25,12,67,73,-64,-13,-5,1652970135.3915575
78,23,8,-10,-35,-38,11,-2,1652970135.398571
-2,-19,-12,-5,39,-110,35,57,1652970135.398571
13,-32,-33,18,-16,-128,-24,-8,1652970135.4135325
-40,22,-35,-3,47,-128,0,-10,1652970135.4135325
-25,9,24,-17,-62,-109,25,20,1652970135.427497
-6,-29,14,54,43,-48,-27,-40,1652970135.427497
-20,-7,19,2,-67,-27,-12,6,1652970135.4344752
16,19,23,29,24,-5,11,-5,1652970135.4344752
-15,-22,-6,-1,15,-16,-11,-13,1652970135.449436
28,11,2,-39,-23,5,5,1,1652970135.449436
-8,9,-29,-29,-2,28,0,10,1652970135.449436
8,18,-12,-61,-3,111,-3,-9,1652970135.449436
-25,-20,23,30,26,47,-6,3,1652970135.466389
-7,8,12,17,-22,60,11,9,1652970135.466389
36,23,-17,8,17,60,2,-5,1652970135.474369
6,-5,7,75,-31,34,-6,3,1652970135.474369
32,6,3,-82,80,28,6,7,1652970135.4943156
-5,2,-8,-27,-51,16,-11,-5,1652970135.4943156
-18,-11,-10,50,60,17,-17,-24,1652970135.4943156
-13,-33,-18,-67,-22,-9,2,-1,1652970135.4943156
-17,-32,10,38,-9,1,12,1,1652970135.51024
39,14,10,12,-7,8,-4,-3,1652970135.51024
-10,-27,-44,-54,13,28,5,3,1652970135.51024
-6,18,47,49,14,-60,-8,0,1652970135.51024
-10,8,14,8,-13,-99,-8,-10,1652970135.5689979
2,22,-13,-11,-42,-128,-14,-14,1652970135.5689979
-7,19,16,28,20,-15,7,1,1652970135.5689979
-3,14,-26,-32,3,102,3,18,1652970135.5689979
3,21,1,0,4,19,9,1,1652970135.5689979
11,-6,10,21,-10,-32,3,-3,1652970135.5689979
-40,-1,-14,-6,-29,-78,-17,1,1652970135.5689979
-21,9,-11,-32,0,12,6,10,1652970135.5689979
-1,2,1,6,12,126,-13,-7,1652970135.59044
11,1,4,-2,-15,97,16,4,1652970135.59044
-15,-35,-14,-14,-2,111,34,-4,1652970135.59044
9,12,13,14,16,-27,-35,9,1652970135.59044
-12,-12,-4,-3,-18,-86,3,9,1652970135.6024106
-14,-10,-1,13,38,-26,-4,-10,1652970135.6024106
10,-6,3,-6,-32,-123,-4,0,1652970135.6024106
5,-12,-1,-3,-17,-106,17,-7,1652970135.6024106
-12,-7,-5,2,38,-120,-2,-4,1652970135.6312876
12,0,1,-1,-33,-128,-12,-2,1652970135.6312876
2,3,5,-1,1,-79,2,1,1652970135.6312876
9,-6,-14,-3,15,-76,4,-5,1652970135.6312876
-11,-10,5,25,-12,-74,-5,-5,1652970135.6312876
3,1,-17,-24,7,35,8,11,1652970135.6312876
-4,7,17,18,26,53,-8,-10,1652970135.6563497
10,-22,-14,-28,-17,28,3,-15,1652970135.6563497
-4,20,-2,13,-4,120,6,16,1652970135.6643624
-27,-23,-10,12,-5,127,-1,-5,1652970135.6643624
45,41,18,-2,-25,82,-1,15,1652970135.6643624
-16,-18,-5,3,2,91,-20,-5,1652970135.6643624
12,18,-3,-39,-6,101,10,12,1652970135.6643624
8,12,3,25,24,55,-7,-2,1652970135.6643624
-8,-14,-2,29,-24,-5,0,6,1652970135.6713433
-1,-8,1,11,15,-53,5,1,1652970135.6713433
-13,-25,-39,-65,13,-97,2,-18,1652970135.7416372
6,11,25,-12,-28,-128,-10,-6,1652970135.7416372
1,-7,-2,-13,18,-85,-4,-5,1652970135.7416372
4,9,6,22,-4,-40,5,-2,1652970135.7416372
-9,-5,10,21,-13,53,-7,2,1652970135.7416372
6,7,0,-3,-2,80,-11,-11,1652970135.7416372
-6,-2,-11,-21,-17,65,-3,-5,1652970135.7416372
0,8,-2,-2,-5,90,-1,6,1652970135.7416372
-5,-15,10,16,23,105,3,-10,1652970135.7416372
17,8,-4,0,6,73,7,18,1652970135.7416372
0,-5,1,2,0,58,2,9,1652970135.7416372
5,-6,-8,-19,-6,44,5,-53,1652970135.7416372
27,0,7,3,-1,79,-21,38,1652970135.7565942
-25,15,12,23,-8,62,14,7,1652970135.7953641
-6,9,-1,23,22,93,-5,-10,1652970135.7953641
6,4,-12,-65,-16,99,0,7,1652970135.7953641
-16,-3,8,54,4,43,10,-19,1652970135.803345
20,-5,-15,-59,-41,1,-34,-14,1652970135.803345
-9,-22,-21,12,35,-43,-5,-9,1652970135.803345
-4,6,20,69,32,-81,1,22,1652970135.803345
-4,6,7,7,0,-39,5,-11,1652970135.803345
3,1,-6,-51,-9,-7,15,25,1652970135.803345
-9,-11,-3,-15,-20,-87,14,-30,1652970135.803345
-9,-15,-37,-46,-13,-70,-17,-12,1652970135.803345
-14,-19,-9,51,26,-52,6,-3,1652970135.8093286
13,0,16,40,-30,-33,-3,-1,1652970135.8093286
16,11,4,-39,-16,-8,-6,11,1652970135.8113234
8,6,19,9,-9,20,10,3,1652970135.8113234
-4,11,9,-20,4,-28,-14,4,1652970135.870184
-17,-20,-29,4,-4,24,0,-30,1652970135.870184
8,46,49,-3,2,45,17,28,1652970135.870184
-6,12,-2,-1,-15,-8,6,9,1652970135.870184
-3,-37,-25,18,25,6,-23,-32,1652970135.870184
0,-24,-28,-13,-42,-18,15,20,1652970135.870184
-13,-3,16,8,25,-19,-2,-13,1652970135.870184
6,-2,7,11,33,-5,-2,-2,1652970135.870184
16,47,51,-6,64,-23,9,10,1652970135.8957021
-5,-29,-21,-12,-55,-23,0,-5,1652970135.8957021
-1,3,-63,62,26,-84,-14,0,1652970135.8957021
-4,9,64,-23,-2,-60,13,8,1652970135.8957021
3,-6,0,-14,18,-108,-10,-2,1652970135.9036808
-9,19,20,10,10,-38,-5,-9,1652970135.9036808
11,-26,-11,-41,-36,-39,-15,9,1652970135.9036808
-7,-5,-35,38,14,-122,-23,-7,1652970135.9036808
-14,7,-12,10,-19,-89,-1,-41,1652970135.9036808
11,-21,-3,-15,46,-46,2,38,1652970135.9036808
-4,27,24,15,5,26,-13,-42,1652970135.9106622
-1,-19,1,5,-10,61,-4,13,1652970135.9106622
-4,13,-9,-50,-38,40,21,6,1652970135.9256222
2,-10,-24,30,51,-17,16,-5,1652970135.9256222
0,-1,6,-20,-9,-48,1,22,1652970135.930609
0,4,-9,-64,-51,-77,-9,-15,1652970135.9336011
-11,-25,-4,55,5,-81,4,0,1652970135.95255
14,25,54,-23,-36,-82,-5,-9,1652970135.95255
1,-8,-20,1,27,24,13,9,1652970135.9575684
-5,8,8,47,14,87,6,-4,1652970135.9575684
2,-26,-37,-105,-39,81,-4,13,1652970135.9655156
2,33,38,51,57,81,16,0,1652970135.9655156
-4,-11,-2,-26,7,22,-13,0,1652970135.9774835
-2,-13,-16,25,-18,83,2,5,1652970135.9774835
4,10,-8,26,-28,85,-2,6,1652970135.9924443
-6,-4,-5,33,16,112,-4,-6,1652970135.9924443
1,6,-5,-79,-24,72,-3,-3,1652970135.9944382
16,-4,-5,-11,-9,73,3,-7,1652970135.9944382
-4,6,4,-8,-9,47,-6,18,1652970136.0133884
5,12,0,0,4,34,-12,-27,1652970136.0133884
-16,-15,-5,24,-11,38,8,9,1652970136.0133884
3,-1,-7,-6,2,19,3,16,1652970136.0133884
0,-2,4,-5,-2,57,2,-14,1652970136.0293446
-9,-9,-11,-24,-11,10,1,8,1652970136.0293446
3,-3,-4,20,36,31,-6,-15,1652970136.0373235
-3,2,1,-5,-15,16,3,3,1652970136.0373235
1,-2,23,18,7,39,5,-3,1652970136.05727
0,4,-14,-22,3,-23,-8,-1,1652970136.05727
0,-16,7,31,-30,-12,18,4,1652970136.05727
-14,2,4,-10,33,-31,-3,-9,1652970136.05727
6,6,5,42,0,-40,-7,6,1652970136.081206
-1,-1,-5,-68,-49,-17,-14,-6,1652970136.081206
-6,-9,-27,18,21,-19,-4,-2,1652970136.081206
-15,-14,16,-19,-10,7,-2,-3,1652970136.081206
13,7,-1,13,-25,-45,-7,0,1652970136.081206
14,29,-14,13,50,18,6,8,1652970136.081206
2,11,42,-11,11,-35,4,9,1652970136.0971634
-6,-10,2,29,-8,23,6,-10,1652970136.0971634
-8,-76,-94,-40,6,0,2,6,1652970136.116113
0,44,16,15,-12,-26,0,-2,1652970136.116113
0,29,54,38,-6,-8,0,7,1652970136.116113
17,30,48,-18,-4,-47,-3,3,1652970136.116113
9,2,50,16,-19,-33,-2,10,1652970136.13207
-2,-32,-38,-31,1,50,2,-2,1652970136.13207
-5,-35,-46,-41,21,65,4,-4,1652970136.13207
-44,7,-11,-16,19,-8,-15,-10,1652970136.13207
2,14,-39,-16,-29,32,9,-6,1652970136.1400487
-4,-32,-28,6,-19,3,3,-3,1652970136.1460323
-6,-1,24,53,12,26,0,-1,1652970136.1992934
15,-5,-12,-56,-29,-12,-7,-5,1652970136.1992934
16,50,-10,-6,39,26,10,7,1652970136.204318
-2,-5,64,33,36,9,-7,-1,1652970136.204318
-2,17,8,-25,-41,-7,-2,-2,1652970136.204318
-4,-40,-122,43,38,-14,-3,-1,1652970136.204318
-12,-21,84,-30,21,10,-4,-2,1652970136.204318
8,22,-35,6,-11,-14,1,3,1652970136.204318
1,2,70,2,-19,-25,-5,-1,1652970136.2062745
8,18,21,-9,10,15,10,4,1652970136.2062745
-3,-2,0,14,5,3,-8,-4,1652970136.2192779
-14,-23,-33,42,-2,-35,-6,-3,1652970136.2192779
28,-8,-31,-68,-15,-13,-6,-8,1652970136.2242522
-23,-38,-6,-4,-50,-12,-1,-1,1652970136.2242522
-22,2,-31,6,1,0,1,-1,1652970136.2351964
11,34,30,13,16,31,4,12,1652970136.2351964
-1,17,-44,27,8,34,-6,-5,1652970136.2351964
34,27,41,4,-12,38,0,14,1652970136.2351964
-22,-11,2,-13,25,80,-1,-29,1652970136.252152
-17,-23,-7,34,-28,-12,-5,-5,1652970136.252152
-1,-12,-33,-12,7,6,3,-3,1652970136.255175
22,22,1,6,-7,-6,-2,-1,1652970136.255175
-41,-28,13,-22,-16,-5,-2,2,1652970136.2664535
0,16,13,-13,0,-39,-5,-6,1652970136.2664535
-17,-55,2,13,-1,-21,-1,1,1652970136.275465
1,16,-25,53,27,-45,1,-1,1652970136.275465
18,-3,15,27,-39,-26,7,10,1652970136.291425
30,27,25,-29,19,-28,-7,-1,1652970136.291425
-33,2,-17,-12,-20,-25,0,3,1652970136.291425
3,-10,8,-35,11,-23,-6,-9,1652970136.291425
-51,-35,-18,-7,-23,-23,1,1,1652970136.3123658
28,-7,10,3,47,22,-5,-4,1652970136.3123658
33,41,3,19,-8,57,-1,11,1652970136.3143616
-11,9,-7,-42,-29,103,8,0,1652970136.3143616
-16,-14,-2,-19,1,88,-19,-1,1652970136.3253405
-6,-26,-5,-38,-29,100,3,4,1652970136.3253405
12,0,-27,10,-16,76,-5,-8,1652970136.3342776
-21,-10,23,35,8,4,-2,-1,1652970136.3342776
36,-10,-24,-35,-36,17,10,7,1652970136.3572128
-45,-6,2,10,35,-14,5,-2,1652970136.3572128
11,50,33,31,43,-93,-3,0,1652970136.3572128
-2,-14,-6,-33,-3,-55,8,4,1652970136.3572128
41,5,2,-1,-20,-123,-12,-6,1652970136.3761623
-51,-56,-8,47,19,-116,-3,-6,1652970136.3761623
-3,35,-4,-31,-18,-103,3,1,1652970136.3761623
17,31,-7,38,4,-68,-2,2,1652970136.3761623
12,36,38,12,21,-16,8,2,1652970136.3841422
21,-10,-19,-66,-13,-50,-3,0,1652970136.3841422
10,19,-1,1,33,-35,-8,1,1652970136.3921514
-14,-42,-16,-5,-34,4,10,-1,1652970136.3921514
-2,38,-13,2,-12,-18,-6,1,1652970136.4464557
-2,-3,15,54,-6,-9,2,-1,1652970136.4464557
-20,-25,0,-18,-21,-9,7,-2,1652970136.4464557
9,-5,10,-13,19,27,-5,1,1652970136.4464557
-17,-64,-6,38,24,-14,-5,-8,1652970136.4634216
-2,57,14,-29,-17,51,5,3,1652970136.4634216
-9,-36,-24,15,0,-49,-7,-15,1652970136.4634216
29,46,6,-41,-26,-11,0,10,1652970136.4634216
-8,-42,-21,7,25,-7,10,6,1652970136.479556
25,37,-16,-37,-45,-20,-4,-11,1652970136.479556
6,-35,22,32,43,5,-6,7,1652970136.479556
-10,31,9,38,-2,-48,7,3,1652970136.479556
15,-15,-17,-27,-23,-14,-1,15,1652970136.5025
27,24,4,-8,-18,14,14,4,1652970136.5025
-20,-38,35,79,17,32,-5,-3,1652970136.5025
20,6,-12,-17,43,18,-8,-10,1652970136.5025
-32,0,-4,-28,-32,-18,2,2,1652970136.508484
2,6,3,26,-10,-33,-4,-6,1652970136.508484
-12,-16,-17,-36,-10,29,2,-4,1652970136.508484
15,29,5,-11,27,-24,-7,8,1652970136.508484
15,25,-32,-2,-15,11,-6,-6,1652970136.5214496
-14,-35,29,-14,-29,-48,-4,0,1652970136.5214496
14,20,12,23,-2,24,7,14,1652970136.5214496
-66,-74,6,25,-22,-52,-6,5,1652970136.535411
24,26,-4,-47,26,83,9,-9,1652970136.545384
2,43,-21,-7,-6,-20,-17,14,1652970136.545384
22,12,20,12,-13,23,-3,-1,1652970136.545384
-1,-2,-4,-13,-36,12,24,7,1652970136.545384
-3,1,8,30,59,14,2,8,1652970136.5523918
5,-66,-16,33,1,32,0,-15,1652970136.5523918
-12,41,-34,-59,-17,-5,2,14,1652970136.5523918
11,3,7,20,20,26,-5,-9,1652970136.5523918
-24,-35,31,-33,22,32,-4,-13,1652970136.5703173
-66,-22,-5,25,46,12,-3,-2,1652970136.5703173
-6,9,-7,35,-42,0,-8,-8,1652970136.5763016
18,-37,-24,-52,-29,12,7,-4,1652970136.5782957
-4,57,20,8,-61,-59,-14,-10,1652970136.5902636
18,4,26,34,22,-7,-5,0,1652970136.5902636
-54,-69,-25,-98,-7,10,-3,-8,1652970136.5902636
-69,-42,-5,35,-4,-36,0,-15,1652970136.5902636
48,57,-4,-12,9,-35,2,-6,1652970136.6122053
12,52,35,27,-3,-28,-3,17,1652970136.6141999
22,-19,-25,-17,-3,-20,-30,2,1652970136.6141999
27,-19,19,-6,39,66,1,-22,1652970136.6141999
13,-19,-21,21,-8,24,-5,8,1652970136.6416335
2,8,-6,-10,-11,28,22,20,1652970136.6416335
83,101,-1,-3,-5,-26,1,14,1652970136.6416335
-23,-48,-33,-34,-20,23,4,16,1652970136.6416335
-27,-21,13,41,33,-65,-2,-5,1652970136.6506104
34,3,44,23,5,-89,0,-16,1652970136.6506104
-9,37,-9,15,-30,-97,10,-2,1652970136.6506104
-39,-15,43,7,-15,-126,-18,-14,1652970136.6506104
-7,-27,-34,12,15,-60,0,-10,1652970136.6725514
-86,-63,-17,-70,-12,41,-11,-9,1652970136.6725514
41,39,38,51,12,49,14,0,1652970136.674546
-36,-19,4,78,47,115,-9,-4,1652970136.674546
77,55,0,-33,-69,122,6,15,1652970136.6905034
-40,-25,-35,4,29,113,7,0,1652970136.6905034
-5,-65,-14,16,-28,-50,0,-12,1652970136.6905034
-12,24,26,37,56,-45,2,-9,1652970136.6905034
34,25,19,9,-58,-128,-10,8,1652970136.71045
23,-17,-18,-46,-42,-16,-9,-2,1652970136.71045
5,14,24,46,52,-48,0,14,1652970136.71045
22,21,-19,36,-3,-86,-7,-2,1652970136.71045
-57,-16,-5,127,10,-25,-1,-10,1652970136.7313936
29,-4,-17,127,2,-90,3,-4,1652970136.7313936
-35,-27,-10,109,-29,-10,-1,9,1652970136.7333946
26,35,31,22,10,26,4,11,1652970136.7333946
-4,-3,14,-54,81,63,4,2,1652970136.7603164
-1,-5,12,-126,12,57,-5,-6,1652970136.7603164
-14,-29,5,-108,6,79,-3,-15,1652970136.7603164
13,20,-29,-121,0,85,-5,-9,1652970136.7603164
-34,-24,-23,-96,11,90,8,-2,1652970136.771287
40,22,20,-107,19,56,-7,-7,1652970136.771287
-28,-11,-1,-128,15,66,11,28,1652970136.771287
33,30,-2,-30,38,50,1,10,1652970136.771287
-17,10,4,34,2,35,-3,4,1652970136.7932289
2,-21,-23,3,23,39,-9,-7,1652970136.7932289
10,-63,-3,18,16,25,10,-19,1652970136.7952232
-21,20,-10,-70,-12,43,15,7,1652970136.7952232
-1,12,30,-43,-8,-44,-6,0,1652970136.8151703
-22,26,-13,13,-1,-6,-14,-11,1652970136.8151703
18,30,8,38,-14,99,6,11,1652970136.8151703
8,-12,-22,56,16,20,-14,-7,1652970136.8151703
-1,3,-10,71,25,127,0,-1,1652970136.8291326
7,10,3,94,-31,79,7,-17,1652970136.8311274
-21,-12,-8,75,9,117,18,-1,1652970136.8311274
2,0,0,71,-51,-27,13,2,1652970136.8311274
11,3,3,55,-33,-103,-15,8,1652970136.8520725
-12,-14,-7,31,51,-59,5,3,1652970136.8540661
21,2,-14,24,-16,-116,-16,-16,1652970136.8540661
-5,16,1,24,-27,-80,-1,0,1652970136.8540661
13,-15,4,19,26,23,6,4,1652970136.8789992
13,10,1,38,-36,-26,2,4,1652970136.880994
-47,-12,-11,-13,-9,18,12,-3,1652970136.880994
21,13,11,12,-9,29,-7,10,1652970136.880994
5,0,1,0,-13,-62,2,-6,1652970136.88997
-1,-6,0,2,3,-63,-2,-28,1652970136.88997
14,-6,0,-16,4,-113,8,25,1652970136.88997
-10,-16,-6,-1,-12,-128,-10,-13,1652970136.88997
21,34,10,-2,-5,-101,-3,-15,1652970136.910914
-24,1,-6,-12,-6,-122,21,26,1652970136.910914
26,7,10,18,6,-65,-30,-27,1652970136.9129086
-16,-18,-15,-41,-11,-81,1,1,1652970136.9178953
-12,-4,15,9,-7,-111,-3,0,1652970136.9513555
6,-4,0,-4,-3,-62,-7,-2,1652970136.9513555
-12,-9,-12,-41,-15,-104,1,-8,1652970136.9513555
12,-2,-1,23,17,-52,-2,7,1652970136.9513555
-11,1,-10,-8,-11,-34,-1,-7,1652970136.9624484
9,7,11,-1,0,1,9,10,1652970136.9624484
-12,5,3,-14,-11,44,-7,5,1652970136.9624484
-8,-14,3,10,0,95,-11,-26,1652970136.9624484
-9,-6,-8,-18,6,92,5,4,1652970136.972466
6,-4,-5,31,18,93,3,5,1652970136.972466
29,3,6,-21,-3,89,-13,-23,1652970136.972466
-19,-23,-11,-31,-29,88,-1,16,1652970136.972466
6,29,6,18,-21,127,10,-30,1652970137.0462935
6,15,-4,-22,1,122,2,27,1652970137.0462935
3,13,-1,5,4,65,0,-14,1652970137.0462935
-12,-8,3,13,17,76,-8,-3,1652970137.0462935
12,-21,9,-8,-1,47,0,14,1652970137.0462935
-4,2,1,44,10,17,-9,-33,1652970137.0462935
-7,-14,-7,-1,-3,-2,5,23,1652970137.0462935
10,16,-1,5,-19,6,-6,-5,1652970137.0462935
-10,-13,-9,-14,34,28,6,6,1652970137.090275
5,0,-2,-15,-13,-27,-10,8,1652970137.090275
-15,-5,0,22,-17,-30,-5,-10,1652970137.090275
1,-2,-4,-40,-7,11,5,-1,1652970137.090275
-2,4,7,33,-20,-32,-7,-3,1652970137.099198
3,-10,-2,-39,-6,4,-4,5,1652970137.099198
-18,-3,-2,28,13,13,2,-11,1652970137.099198
16,11,-5,57,-37,6,-1,14,1652970137.099198
1,6,18,-1,41,22,7,1,1652970137.099198
-11,-13,-9,-52,19,87,-10,-2,1652970137.099198
-15,2,-3,9,14,31,-22,-14,1652970137.099198
15,6,1,-97,-22,40,9,7,1652970137.099198
-6,-7,-3,43,-19,31,-9,7,1652970137.099198
-7,-5,-9,-17,-5,-13,3,-6,1652970137.099198
-13,0,-12,26,16,-51,-4,8,1652970137.1001956
25,0,14,21,11,-6,6,-1,1652970137.1001956
-6,0,20,0,-26,-70,-8,0,1652970137.171815
13,14,18,31,-25,-89,7,6,1652970137.171815
0,12,7,-26,37,-10,-1,-7,1652970137.171815
-15,-23,-29,-1,-36,-84,-10,-24,1652970137.171815
-2,10,-25,-50,39,-11,-1,18,1652970137.171815
-2,-3,20,9,2,11,10,-5,1652970137.1888254
0,-4,-16,-41,-36,-3,11,9,1652970137.1888254
13,2,18,21,11,-44,-6,12,1652970137.1888254
0,2,-7,-46,-15,38,0,-22,1652970137.1888254
-16,-9,-7,-12,-17,15,9,16,1652970137.1888254
-2,12,-18,71,26,34,7,-9,1652970137.1888254
10,16,2,-63,10,12,-4,-2,1652970137.1888254
-4,-18,1,22,-20,-9,2,-1,1652970137.1888254
2,5,1,5,4,-13,-15,-2,1652970137.1888254
2,2,4,-24,-47,-8,-3,-4,1652970137.1888254
-8,-7,-10,50,-13,7,3,11,1652970137.1888254
-3,-12,-23,-80,38,0,5,0,1652970137.2381313
3,9,36,40,22,-46,-2,3,1652970137.2381313
6,-20,-40,-89,-48,-34,12,9,1652970137.256087
-19,5,29,64,39,-32,5,-16,1652970137.256087
12,5,3,-1,47,2,3,-4,1652970137.256087
-9,13,19,38,-43,-56,-13,3,1652970137.256087
-8,-10,9,79,40,-39,10,12,1652970137.256087
16,9,-25,-83,-6,49,-7,-5,1652970137.256087
-4,-4,-7,27,-32,-23,-1,16,1652970137.256087
0,-7,-18,-53,46,35,6,0,1652970137.256087
-3,-6,16,72,27,42,-15,-23,1652970137.256087
9,-3,31,-4,8,-33,-7,-5,1652970137.256087
-21,-9,-6,-8,-34,-53,-10,-7,1652970137.256087
13,5,-32,-4,-9,-118,-4,-4,1652970137.256087
-5,-4,7,-26,-12,-125,5,8,1652970137.256087
-2,-1,-25,-17,22,-128,0,-7,1652970137.256087
-5,-16,43,52,-37,-115,6,16,1652970137.2730417
-14,-4,-2,2,-9,-50,-2,-14,1652970137.2730417
7,11,-9,11,-8,23,5,2,1652970137.2730417
-3,4,-12,3,23,68,-9,1,1652970137.2730417
11,11,15,-89,-55,52,-6,0,1652970137.2939844
-7,-25,-12,28,66,14,2,-1,1652970137.2939844
2,18,25,5,-1,-43,-2,2,1652970137.295979
4,0,-20,-8,-7,29,-1,2,1652970137.295979
-2,-9,-15,66,36,51,2,-1,1652970137.3159254
3,6,-1,-41,-30,121,2,-6,1652970137.3159254
0,-2,4,-4,2,97,-7,-7,1652970137.3159254
-4,-3,12,22,-4,113,11,2,1652970137.3159254
-1,-11,-8,-12,-12,41,-20,-8,1652970137.3318827
19,7,-11,4,-10,78,-16,-8,1652970137.3318827
-14,0,-6,-38,-9,56,10,-20,1652970137.3318827
-19,4,4,27,-18,55,-10,-13,1652970137.3318827
5,-4,-4,46,43,62,7,33,1652970137.3548217
-5,-26,-11,-29,-21,35,6,2,1652970137.3548217
14,3,-1,-65,-2,16,-15,12,1652970137.3568163
0,18,6,22,7,-1,1,-31,1652970137.3568163
-4,15,13,2,18,-12,-20,-19,1652970137.3637977
-4,-3,2,18,9,-8,-3,-5,1652970137.3637977
1,-6,-1,9,-14,-3,9,8,1652970137.3757653
-4,-13,5,16,17,12,8,4,1652970137.3757653
-4,-2,-7,8,-33,-8,11,2,1652970137.391723
18,12,-13,-51,6,-11,-1,2,1652970137.391723
-9,-1,3,3,4,-9,1,1,1652970137.391723
2,1,11,19,3,-47,1,9,1652970137.391723
-10,-2,-8,-42,-8,25,0,-17,1652970137.415659
-3,7,6,17,-5,-27,-2,3,1652970137.415659
-2,-6,4,1,-28,0,1,-4,1652970137.415659
16,4,-2,-2,29,9,10,22,1652970137.415659
-7,-4,-8,-20,32,8,8,-6,1652970137.4236374
-11,-8,1,12,-23,-5,7,0,1652970137.4236374
5,4,6,16,35,-15,-21,-4,1652970137.4435844
-14,-14,-5,-36,-51,-38,-11,-3,1652970137.4435844
5,7,-7,-23,20,10,12,-5,1652970137.4505658
19,9,-10,44,27,13,5,13,1652970137.4505658
-9,-4,-4,20,-13,-19,-5,-13,1652970137.4505658
3,-4,16,50,-18,-14,1,4,1652970137.4505658
-3,-10,-10,-38,-12,-32,-5,0,1652970137.4745016
-10,8,17,6,-13,-2,8,-4,1652970137.4745016
-1,1,0,-3,6,-13,8,3,1652970137.4745016
2,-12,-23,-4,61,26,3,3,1652970137.4745016
4,2,-6,56,-46,3,-3,-3,1652970137.4954453
-14,-22,-9,-23,-6,-46,-11,-6,1652970137.4954453
13,4,-11,-46,23,58,4,9,1652970137.50143
-3,15,4,-45,-48,-45,1,0,1652970137.50143
10,39,57,66,-6,4,1,4,1652970137.5114028
1,-19,27,-8,3,11,2,2,1652970137.5114028
-3,-17,-63,-31,7,-1,-3,-1,1652970137.5114028
-2,-10,3,14,38,15,4,4,1652970137.5114028
5,8,-2,5,-31,-17,0,-2,1652970137.5343509
1,26,3,13,-16,-37,1,0,1652970137.5343509
12,-2,39,-13,54,94,14,7,1652970137.5343509
-10,7,-1,7,-13,-9,-9,-2,1652970137.5343509
-1,-25,-13,42,16,-59,-12,-5,1652970137.5522943
-9,9,10,-10,-20,46,-1,-2,1652970137.5522943
1,-4,-10,-31,-38,-24,-8,-4,1652970137.5542884
-9,-16,-20,-56,19,-3,-2,-2,1652970137.5542884
0,21,26,14,24,58,7,0,1652970137.5692482
-5,-15,-10,36,1,-17,-11,-4,1652970137.5692482
5,1,6,-2,22,-20,3,-2,1652970137.5692482
2,3,-10,10,-14,30,5,1,1652970137.5692482
-4,-21,-27,-41,0,-24,0,1,1652970137.5911899
-11,-14,-20,-25,-38,-43,-11,-6,1652970137.5911899
13,36,24,29,-17,-30,-6,0,1652970137.5911899
-8,-5,6,21,22,-11,3,-1,1652970137.5911899
12,-36,-45,-40,-24,-33,0,0,1652970137.6191156
-24,-8,-24,33,58,52,7,0,1652970137.6191156
-6,19,39,33,-21,4,2,2,1652970137.6191156
24,69,42,-59,-40,-9,0,5,1652970137.6191156
10,-11,5,-8,10,25,0,-1,1652970137.6350732
8,-13,-21,-31,-1,11,4,1,1652970137.6350732
-22,-28,3,24,-1,-45,-8,-7,1652970137.6350732
-3,-11,3,42,16,34,2,-5,1652970137.6350732
-9,-9,-7,12,-3,7,-2,-2,1652970137.654022
8,2,-16,-78,-11,-33,2,1,1652970137.654022
-21,-21,15,65,-6,10,-7,-9,1652970137.654022
29,-18,-11,7,-17,-6,-2,3,1652970137.654022
-12,25,25,-12,29,51,3,-2,1652970137.6769602
-11,10,3,5,7,28,-1,1,1652970137.6769602
18,18,-41,5,1,-5,-6,5,1652970137.6769602
-17,-32,9,-63,-41,-9,0,-1,1652970137.6769602
16,61,-6,27,8,46,5,3,1652970137.6899257
10,-29,10,6,-15,25,8,13,1652970137.6959093
0,-13,-12,2,-1,49,-1,-34,1652970137.6959093
33,32,33,39,20,25,-2,2,1652970137.6959093
31,7,-23,-56,6,14,-6,1,1652970137.7128642
-39,-5,-6,9,37,52,-9,-15,1652970137.7128642
-4,-14,-28,-51,-41,-32,4,7,1652970137.7128642
-17,-7,11,70,36,69,6,-2,1652970137.7128642
-14,13,45,24,-14,-21,0,-4,1652970137.7467732
15,-9,12,46,13,17,-4,-1,1652970137.7467732
-3,-5,-4,-24,-8,65,6,9,1652970137.7467732
-27,-33,6,20,38,87,-3,-8,1652970137.7467732
15,24,-11,-11,-6,25,0,6,1652970137.7547524
0,-14,9,41,-24,6,-7,-4,1652970137.7547524
1,-27,-30,-124,31,-37,4,5,1652970137.7547524
-19,6,-10,63,-60,-90,-11,-2,1652970137.7547524
31,35,-9,-31,18,-6,7,4,1652970137.7707095
-37,-25,0,7,-12,-73,-3,-9,1652970137.7707095
-10,3,36,93,7,-47,-2,2,1652970137.7766933
9,25,-1,-63,2,-78,-3,0,1652970137.7786882
-29,-11,-26,9,-29,-115,2,-6,1652970137.797995
39,35,22,-38,10,-50,15,24,1652970137.797995
4,-12,7,-17,-9,-62,-13,-11,1652970137.797995
-27,-5,-7,-16,-2,-47,15,7,1652970137.797995
-22,-51,-30,1,0,-47,-29,-9,1652970137.8119478
4,20,-4,-34,-16,-12,6,1,1652970137.8119478
4,5,47,80,48,2,-6,0,1652970137.8119478
22,3,-32,-60,18,-10,2,0,1652970137.8119478
-28,-23,-8,8,-18,-39,6,-3,1652970137.836927
30,1,31,29,-14,-45,0,1,1652970137.836927
-9,-5,-18,-22,4,-10,-1,4,1652970137.836927
-40,-36,-18,-21,-18,-48,-12,-18,1652970137.836927
17,40,11,17,14,-1,5,7,1652970137.8638499
-1,-39,-25,-6,10,-37,-8,-2,1652970137.8638499
-10,53,3,-20,-41,20,6,3,1652970137.8638499
28,59,7,-6,37,-12,2,6,1652970137.8638499
-61,-64,-6,7,-25,52,4,-13,1652970137.8708425
58,39,14,10,28,7,-1,-4,1652970137.8728237
17,12,-25,-56,17,-10,4,19,1652970137.8728237
-30,-45,-23,-53,-48,10,-12,-5,1652970137.8728237
16,-7,31,67,15,14,5,-3,1652970137.8997655
-30,28,-4,11,-7,-3,0,-4,1652970137.8997655
23,-60,-19,10,-14,7,-6,-8,1652970137.8997655
-21,33,23,8,-31,-31,5,3,1652970137.8997655
13,-4,4,-17,30,48,11,2,1652970137.9157097
-21,-36,-3,4,18,65,-4,-4,1652970137.9157097
-1,36,6,11,-12,2,-3,1,1652970137.9157097
31,5,-13,-22,8,-14,-5,-1,1652970137.9157097
-50,-16,-13,24,21,11,2,-4,1652970137.9688802
50,40,16,34,1,4,3,-4,1652970137.9688802
-8,-30,16,-88,-30,4,9,7,1652970137.9688802
8,8,-5,22,-12,6,-6,-4,1652970137.9688802
15,-18,24,40,21,-39,-6,2,1652970137.9958162
-8,32,-21,16,-5,17,-4,-1,1652970137.9958162
-26,-39,-27,-21,-15,-19,-3,-18,1652970137.9958162
27,24,6,35,-38,-29,-4,-2,1652970137.9958162
22,9,-2,-62,23,17,-5,-28,1652970137.9968164
-31,-30,23,34,-19,-32,6,16,1652970137.9968164
24,51,19,75,30,30,16,19,1652970137.9968164
13,-44,-28,-86,-25,20,-4,-2,1652970137.9968164
-27,25,-21,9,2,-37,-5,1,1652970137.9968164
-11,-1,27,-38,-39,12,-8,-11,1652970137.9968164
-53,-45,2,40,20,10,8,-6,1652970137.9968164
2,-17,-10,9,9,20,-7,2,1652970137.9968164
10,23,8,7,36,-6,-2,9,1652970138.0207431
-21,12,-16,-75,-67,18,-13,-6,1652970138.0207431
-47,-70,-30,-25,-39,-19,8,-1,1652970138.0207431
82,96,52,81,48,30,10,6,1652970138.0207431
-9,-37,-12,2,16,3,-24,-2,1652970138.0366921
51,1,-8,-43,23,-7,20,23,1652970138.0366921
-42,-4,29,44,9,-24,-21,-17,1652970138.0366921
-19,-72,-29,-8,-1,-11,4,-6,1652970138.0366921
30,96,15,-3,-8,-13,-5,2,1652970138.0566354
-16,-32,-14,-2,3,5,11,-2,1652970138.0566354
53,62,-10,-46,-11,-52,-43,-17,1652970138.0566354
-47,-117,0,80,68,75,29,25,1652970138.0566354
-8,11,-24,-16,-27,-48,16,18,1652970138.0705993
43,48,18,-26,1,28,-7,-2,1652970138.0705993
-5,-4,-2,27,7,27,-3,-31,1652970138.0705993
-20,-5,27,31,1,23,-11,-7,1652970138.0705993
-27,-95,-58,-47,-31,-14,-2,-1,1652970138.0945356
6,19,44,53,-10,-1,6,-7,1652970138.0945356
-1,54,6,11,47,51,3,13,1652970138.0945356
24,19,-13,-11,8,-11,1,8,1652970138.0945356
-28,-15,-1,-12,-48,-12,0,3,1652970138.113485
10,22,-19,68,21,-14,-8,0,1652970138.113485
13,-17,-6,-80,-25,-30,-4,8,1652970138.113485
-9,3,3,2,-30,23,10,-1,1652970138.113485
-18,-27,5,15,50,65,-5,-14,1652970138.1374617
-39,-44,-24,-16,-7,-28,-13,-12,1652970138.1374617
4,-6,-28,-7,-1,12,1,17,1652970138.1374617
-8,-8,-7,52,29,-54,-4,-4,1652970138.1374617
10,15,38,-25,-12,-46,6,2,1652970138.157416
-37,30,5,5,29,-35,-10,-5,1652970138.157416
51,28,61,52,8,-36,5,4,1652970138.1623933
-46,-56,-77,-128,-69,-115,-1,-11,1652970138.1643922
-5,-7,-30,23,-19,-98,-2,10,1652970138.1783504
45,12,16,-11,48,-49,0,3,1652970138.1783504
2,32,31,11,-73,-71,-6,2,1652970138.18035
-35,30,28,14,-17,-111,-9,-10,1652970138.18035
60,-23,-21,-4,43,-17,-7,-8,1652970138.1943076
-14,-8,-6,2,-71,-1,5,11,1652970138.1943076
-32,-28,-17,17,59,105,-2,-4,1652970138.1943076
22,9,22,51,1,127,4,-8,1652970138.196307
-32,-58,6,-50,-44,67,0,-2,1652970138.2251933
22,-14,-9,20,25,77,5,8,1652970138.2251933
22,70,22,13,22,91,4,5,1652970138.2251933
-50,-21,22,45,29,88,-11,-5,1652970138.2251933
53,16,33,38,-22,111,-4,-1,1652970138.2302144
49,14,-12,-40,-73,89,-8,-7,1652970138.232206
0,-48,-11,23,21,85,9,4,1652970138.232206
11,11,-19,28,22,43,3,0,1652970138.232206
7,50,-9,57,-67,-22,-7,-5,1652970138.2557187
-63,-13,11,52,66,5,7,3,1652970138.2557187
6,-16,-8,-48,-3,-86,-5,-7,1652970138.2557187
32,51,-11,-70,-16,-41,0,5,1652970138.2557187
4,-13,4,-24,30,-11,8,0,1652970138.2766628
5,-10,-4,-26,1,-41,0,8,1652970138.2766628
62,4,-1,65,-14,-30,-30,-9,1652970138.2766628
-44,0,-7,26,51,-17,7,-11,1652970138.2766628
-22,-6,-8,2,-21,9,-2,-2,1652970138.2996027
-6,-2,-14,13,-9,-28,-8,4,1652970138.2996027
-31,-11,-23,-14,9,-8,22,-11,1652970138.2996027
43,16,18,-15,-39,-4,-13,2,1652970138.2996027
-9,9,11,-65,34,28,12,19,1652970138.3155608
25,1,-16,-128,-1,10,6,-2,1652970138.3155608
-15,-3,6,-80,6,15,-2,7,1652970138.3155608
11,7,-2,-95,-17,17,-6,-15,1652970138.3155608
-13,-5,-2,15,-8,12,2,-10,1652970138.3369558
-35,-20,-10,31,15,-9,-8,-4,1652970138.3369558
-16,0,-20,-20,-24,-29,-3,-4,1652970138.3369558
39,-14,34,-23,21,0,1,6,1652970138.3369558
29,48,25,-3,10,-17,-8,8,1652970138.3549101
-17,-10,-24,-74,12,-39,9,-8,1652970138.3549101
-4,2,0,-30,-14,-53,3,2,1652970138.359886
7,-12,-12,-20,2,-77,-8,-3,1652970138.3618836
-21,-20,8,36,-3,105,-1,-3,1652970138.3708568
-1,-31,-15,-16,-7,108,1,3,1652970138.3708568
-12,-9,-9,29,-8,5,15,0,1652970138.3758433
-13,17,-2,50,8,32,1,8,1652970138.378835
-14,35,8,61,9,-44,-4,-10,1652970138.3987813
17,20,-12,39,-17,-15,15,10,1652970138.3987813
19,17,-1,31,-20,56,-5,-9,1652970138.3987813
-40,7,-3,62,15,19,-2,-3,1652970138.3987813
-6,-5,-10,-26,-24,29,1,-15,1652970138.4077578
-13,-3,27,57,19,42,-3,1,1652970138.4077578
0,-11,0,23,16,86,-3,5,1652970138.4157367
26,0,0,12,-34,0,-1,4,1652970138.4157367
-12,-9,-7,4,8,-77,3,0,1652970138.4316938
5,-6,-2,-28,-6,-95,3,0,1652970138.4316938
-13,-12,3,11,17,-126,-1,-4,1652970138.4316938
-3,-2,-16,-17,-3,-102,-3,-6,1652970138.4316938
13,-8,1,-20,10,-110,4,4,1652970138.4591465
-3,-3,1,28,7,-109,-12,-4,1652970138.4591465
-5,-13,14,15,-3,-48,-12,-2,1652970138.4591465
-25,1,-1,-3,-8,-10,4,6,1652970138.4591465
19,-25,-1,-8,-3,-80,-5,1,1652970138.466132
-4,23,4,15,-25,-78,-2,-10,1652970138.466132
1,2,-5,25,11,34,10,6,1652970138.4820879
8,0,1,1,9,6,-3,3,1652970138.4820879
7,-1,7,3,-1,38,2,0,1652970138.4940574
-16,-15,-8,-14,6,-23,-4,-9,1652970138.4940574
3,-6,-10,-30,-17,-77,0,6,1652970138.4940574
7,-3,-3,10,17,-16,0,-1,1652970138.4940574
-15,4,6,-16,-6,52,0,-1,1652970138.5169933
4,-8,2,21,30,107,1,0,1652970138.5169933
-12,2,-1,2,-32,21,-2,-1,1652970138.5169933
6,-6,-7,-6,-14,94,0,0,1652970138.5169933
2,1,0,-9,-30,64,-5,-11,1652970138.53295
11,-16,3,7,54,80,-11,-12,1652970138.53295
-31,10,-2,-16,-13,105,42,52,1652970138.5509071
-18,1,-3,-13,13,55,-15,-28,1652970138.5509071
15,5,4,-21,-6,38,3,6,1652970138.553871
0,-6,-4,-7,-43,27,-4,-9,1652970138.553871
20,-1,-4,4,8,17,1,-10,1652970138.553871
12,15,11,19,4,-5,-6,17,1652970138.553871
-38,-16,2,-22,9,2,-1,-4,1652970138.5768328
-15,-1,-8,-16,-25,-13,-5,-7,1652970138.5768328
3,-12,-18,9,23,-44,-6,-1,1652970138.5768328
-1,-12,4,13,-8,-26,6,5,1652970138.5768328
21,18,16,13,12,-34,-5,-1,1652970138.6027858
-9,-2,4,21,-4,-43,1,7,1652970138.6027858
7,6,12,19,5,-16,-4,-7,1652970138.6027858
4,-1,-13,-17,-10,-10,-1,-5,1652970138.6027858
0,2,-8,-51,-11,-10,-3,1,1652970138.6097484
-3,0,-3,6,-20,49,9,7,1652970138.6097484
-5,1,11,41,20,-4,-11,-9,1652970138.6097484
3,3,-9,25,28,52,2,0,1652970138.6097484
1,-6,-7,-15,-16,24,3,6,1652970138.635681
-1,-3,-6,-36,-17,-5,-5,-1,1652970138.635681
-10,8,6,-12,-24,-19,-6,-14,1652970138.635681
-3,0,5,3,-4,2,-1,-2,1652970138.635681
8,1,-13,9,-17,-20,-4,0,1652970138.6625729
-2,2,-2,-12,36,39,17,5,1652970138.6625729
4,9,6,-1,-31,-10,-25,2,1652970138.6625729
4,-23,-1,-28,-30,-16,-6,-8,1652970138.6625729
2,43,-4,-10,15,26,-1,-2,1652970138.6705837
-6,-8,0,10,9,16,11,20,1652970138.6705837
2,-5,-10,-5,14,25,8,-12,1652970138.6705837
-5,12,20,33,-6,17,2,7,1652970138.6705837
3,-23,-10,18,14,-2,-6,-5,1652970138.7321844
-1,3,-6,9,-2,-11,-7,-3,1652970138.7321844
-1,-2,-5,-16,37,8,1,4,1652970138.7321844
4,2,-4,13,-12,-15,-2,0,1652970138.7321844
0,-8,21,8,15,-4,4,3,1652970138.745189
-4,0,-15,-20,-51,-44,-7,-6,1652970138.745189
-4,-15,-9,-19,8,-18,-10,-5,1652970138.745189
-5,-9,-23,-5,35,-18,3,-3,1652970138.745189
-3,8,19,-12,-17,5,-1,3,1652970138.745189
-9,-4,2,-2,-2,-14,-4,-7,1652970138.745189
16,12,14,-15,-28,-16,-6,-3,1652970138.745189
5,0,-8,-10,7,39,10,7,1652970138.745189
0,-2,-7,34,22,17,-10,-5,1652970138.7728405
-13,-6,0,8,-19,68,-14,-6,1652970138.7728405
2,10,-7,-27,17,102,4,-15,1652970138.7728405
-5,-2,3,-16,-12,70,-3,20,1652970138.7728405
6,-14,-26,-9,-24,19,1,9,1652970138.8038023
-10,-3,9,29,13,1,1,-25,1652970138.8058023
3,-4,-10,5,8,-16,4,-4,1652970138.8058023
6,12,17,-23,0,-28,-1,-2,1652970138.8058023
-7,-19,7,25,-1,-49,1,-1,1652970138.8058023
13,13,7,44,10,-85,1,2,1652970138.8058023
0,-2,-4,-58,-22,-108,-1,5,1652970138.8058023
-31,-17,-10,-43,-26,-88,-2,-6,1652970138.8058023
23,0,-28,-22,10,-98,1,5,1652970138.812786
-7,17,3,12,27,-29,10,4,1652970138.812786
27,-11,23,44,18,4,1,5,1652970138.8207648
-11,22,-15,-9,-15,-15,-4,-4,1652970138.8207648
-8,-12,8,-31,-19,32,8,-3,1652970138.8366892
1,-4,6,8,11,7,-5,2,1652970138.8366892
-5,-1,-8,-4,18,58,3,1,1652970138.881761
6,-14,-7,13,17,-7,-7,-6,1652970138.881761
-7,2,-22,9,-1,36,7,2,1652970138.8887348
6,-3,14,-17,15,35,-3,-4,1652970138.8887348
-10,3,16,19,-32,-6,-7,2,1652970138.8887348
4,-5,0,23,-2,11,2,-3,1652970138.8887348
-7,-3,-11,-54,-3,-16,-5,-4,1652970138.8887348
5,16,33,43,-7,-43,1,4,1652970138.8887348
-4,3,10,-6,7,-113,14,5,1652970138.8887348
2,-4,-17,8,1,-105,-16,2,1652970138.8887348
1,-7,-7,-32,17,-113,-9,-3,1652970138.9160368
-1,-2,-14,-31,-24,-104,-3,0,1652970138.9160368
-6,1,1,46,9,-28,2,-2,1652970138.9160368
7,6,25,26,-19,10,10,1,1652970138.9160368
-4,5,-2,-29,-9,-64,-7,-3,1652970138.9280012
-3,-12,-16,-11,2,-54,-13,-4,1652970138.9280012
-5,1,-2,11,3,-8,25,10,1652970138.9280012
-4,-4,-9,-10,-7,-59,-1,-13,1652970138.9280012
-1,-1,13,44,17,14,0,-1,1652970138.9684198
-2,-13,-7,-22,-23,36,1,-5,1652970138.9684198
-18,-7,-21,-5,6,77,-6,-19,1652970138.9684198
11,-1,4,-6,-24,72,-7,4,1652970138.9684198
5,8,11,18,19,87,-6,-8,1652970139.0168486
0,-3,-8,-14,-15,67,8,19,1652970139.0168486
-11,-13,-11,-24,-3,59,-6,4,1652970139.0168486
4,4,4,-1,11,61,1,-13,1652970139.0168486
1,4,4,50,2,52,6,0,1652970139.0288577
4,-3,0,-27,-2,39,0,-3,1652970139.0288577
10,2,-13,-12,-15,-8,1,-2,1652970139.0338032
-13,6,31,44,33,-46,1,-1,1652970139.0338032
-4,-4,-2,5,-28,5,-2,2,1652970139.0338032
-7,-6,-6,-20,-10,17,0,-4,1652970139.0338032
-2,-2,-15,-42,-33,18,-12,-2,1652970139.0338032
6,0,-9,-13,14,42,0,2,1652970139.0338032
-5,0,8,30,35,54,8,4,1652970139.0338032
-2,-1,-2,-26,-4,47,-1,1,1652970139.0338032
-2,-2,-6,-9,-17,33,-29,-2,1652970139.0338032
7,2,-11,-5,-1,52,6,4,1652970139.0338032
-2,2,6,19,7,62,0,4,1652970139.0338032
2,0,-4,23,5,25,0,-11,1652970139.0338032
-1,3,3,-6,0,21,1,3,1652970139.0517583
0,-4,-2,-1,-18,23,4,12,1652970139.0517583
-5,0,10,4,-6,0,-3,-10,1652970139.059764
3,2,0,11,12,21,0,-1,1652970139.059764
-1,-3,6,21,4,-4,0,0,1652970139.059764
-3,-3,-5,-67,4,7,-6,-4,1652970139.059764
0,-2,-4,2,-19,-16,11,2,1652970139.0747375
1,0,8,46,36,-6,3,3,1652970139.0867045
-2,1,9,-2,-18,-15,-5,-9,1652970139.0867045
0,-4,-4,42,14,-12,-4,0,1652970139.0867045
1,0,-7,-23,8,-14,-6,0,1652970139.1026182
-4,-4,-10,-53,5,-17,-5,-19,1652970139.1026182
-1,-1,0,3,-27,-1,4,16,1652970139.10365
-1,-3,-17,-55,25,-9,7,-1,1652970139.10365
1,4,39,62,-14,-19,-14,11,1652970139.1195722
1,-1,-5,-1,9,-11,6,0,1652970139.1195722
1,-1,6,27,18,-6,2,-4,1652970139.1195722
-1,-1,12,20,-15,-11,-3,-6,1652970139.1195722
0,-4,-15,-44,-12,-11,2,-1,1652970139.197082
3,2,-2,-10,-6,-11,-6,1,1652970139.197082
1,-2,-15,3,5,-9,-3,-1,1652970139.2040346
-2,5,26,17,7,0,2,3,1652970139.2040346
-3,-1,-5,-40,-14,-11,1,-5,1652970139.2040346
-2,-1,1,25,-24,-19,-4,4,1652970139.2040346
-3,-2,-2,51,37,6,6,-2,1652970139.2040346
-1,0,-2,-40,-35,-10,-1,0,1652970139.2040346
-2,1,-12,40,29,12,1,-1,1652970139.2040346
-3,-5,-14,-46,-11,-12,-8,-4,1652970139.2040346
3,0,0,1,-11,-14,1,-1,1652970139.2040346
-2,-3,4,12,-10,-12,-4,-2,1652970139.2040346
1,-1,1,-38,0,2,4,0,1652970139.205995
-2,-5,-22,-55,-6,-6,-2,2,1652970139.205995
2,3,10,31,25,-5,-2,1,1652970139.2179635
3,5,14,17,-53,-18,-1,8,1652970139.2179635
-9,-6,-14,-12,-8,-8,-4,-16,1652970139.2230005
0,1,1,28,21,5,2,3,1652970139.2230005
-3,-3,-7,-32,-5,-4,0,-8,1652970139.2230005
-1,0,0,8,14,-5,-5,-6,1652970139.2230005
1,-1,-5,10,-3,-10,0,5,1652970139.23811
3,3,8,17,-12,-14,-4,4,1652970139.23811
-5,-2,-4,-30,-8,2,7,-2,1652970139.23811
-4,1,-5,-8,12,0,-4,-4,1652970139.23811
-2,0,-2,-13,-4,5,13,9,1652970139.2921762
-4,-3,0,63,6,1,-26,-10,1652970139.2921762
4,1,-2,-11,-2,-10,-5,2,1652970139.3211095
-2,-4,-12,-2,16,7,8,-5,1652970139.3211095
2,1,5,-24,-15,-8,0,0,1652970139.3211095
0,0,3,6,-11,-8,5,2,1652970139.3211095
-1,-2,-1,10,21,11,2,0,1652970139.3211095
1,3,3,6,27,-12,-3,-2,1652970139.3211095
-3,-6,-16,-59,-32,9,0,-9,1652970139.3211095
-2,-2,2,29,2,5,8,24,1652970139.3211095
