0.41986351664909466,0.18530942832288394,0.4464976369217709,0.6731641836362373,0.5646822739096097,0.6985145679042556,0.6792191347790749,0.2843522496524775
0.41856396377394184,0.18533606984160647,0.4458545384647329,0.6766545732387695,0.564232553433217,0.6994824875701717,0.6854535796437237,0.284322016757881
0.41739149063217285,0.18536314422950556,0.44551765373198005,0.680142331021715,0.5635919433324325,0.7001943701298896,0.6917515439265723,0.28437295847706706
0.41636845057037464,0.1854374082160984,0.44526673646307646,0.6832497907145562,0.5628429029322973,0.7009147209950368,0.6976629140509923,0.2843878368583175
0.41535561837329193,0.18565702872995146,0.4451250368892968,0.6864718673184855,0.5620176111822702,0.7017293941152776,0.7035999401757975,0.2842612294512655
0.41432009849879287,0.18600879112705657,0.4449609124842956,0.690428948984177,0.5611068065439168,0.7032218680420144,0.7103915198337288,0.284072952435064
0.413638290030409,0.18643981172382382,0.444828983833593,0.6952524236376515,0.5602688613620722,0.7058225779917857,0.718261398598977,0.28383923942193373
0.4136364638748181,0.18689942844838994,0.4449218718669718,0.7007328354143199,0.5596752532230017,0.7087387123718688,0.7263126894686408,0.283482059078519
0.4141780969973873,0.18733915320853825,0.4450224526219217,0.7062011796103809,0.55918221814502,0.7112517234692867,0.7342288679954747,0.28322775816267837
0.4153727688265982,0.1877661118638544,0.44490965820996264,0.7113919490894504,0.5585652250997791,0.7134569348376806,0.7423558327154052,0.28329274791081716
0.41737815403779466,0.1882673643848632,0.44478676269738215,0.7169674183776805,0.5582314137609152,0.7156798331755796,0.7503021641374186,0.28352268534405667
0.41965563937565553,0.18884588426012147,0.44490838994615856,0.7235607105820563,0.5589109412762223,0.7178974459433649,0.7580546683362707,0.2840305276271214
0.42176998649114555,0.18940415185243165,0.445176879068842,0.730900592970952,0.5605056279910308,0.7196532169869934,0.7660154410310012,0.28507114591343197
0.42376635922926237,0.18986227683007342,0.445364952292433,0.7382989977396073,0.5623991728263867,0.7210323807063617,0.7738936219004312,0.2865936392495047
0.42570144458536907,0.1901506232368753,0.4455561540732973,0.7453851975089745,0.5644564132357953,0.7225046164584588,0.781451185805596,0.2883215309896151
0.4276228393613329,0.19037657995744833,0.44649230477280083,0.7521926621033262,0.5667417949726752,0.723950797104775,0.7887883725932905,0.28995673107681386
0.42940225038661656,0.1907298467874398,0.4487084339582979,0.7591682051294351,0.5694972637209537,0.725156708176637,0.7960815102648852,0.29138802764773936
0.4310240719827734,0.19119117833267707,0.4515517290204162,0.7662509863958594,0.5732145494672851,0.7262252300342275,0.8037199432684755,0.2926697014530525
0.432700851220233,0.19166182975373605,0.4542901654307573,0.7728344578306385,0.5776944894335215,0.7273618801423544,0.8118083250474645,0.29399422388983054
0.4342881759815452,0.1921543135674502,0.45701257357906544,0.7786598375617776,0.5822377069146286,0.7286027162594364,0.8197576735176062,0.29541862775948446
0.4356881118564098,0.19270732128147136,0.4598841705369357,0.7837878752058595,0.5865428839334719,0.7296144011433647,0.8270582234515851,0.29699737099840706
0.43701442579444694,0.1932441433603513,0.46254803114802057,0.7884712463339713,0.5907298697001212,0.7303056268348759,0.833630831721136,0.2989361729418096
0.4382021771214271,0.1937315351340963,0.465130958257359,0.7929788192795743,0.594960221003731,0.7310640654101119,0.8396010758729561,0.30105705207310435
0.43942338941449904,0.1941979179329559,0.46834937237956403,0.797541204252204,0.599334944469546,0.7324543699225177,0.8453036083920092,0.303009064752244
0.44111670255410784,0.19463706851275872,0.4722394099533926,0.8024457966134648,0.6037298814773374,0.7347486074877463,0.851246004171174,0.30477760688826916
0.44354746201558115,0.19508986203862946,0.47624662468648854,0.8077465357129768,0.607905902194548,0.7375843557596992,0.8575190778973669,0.3065828945544961
0.4466077288542381,0.1955552684950312,0.47992746876074616,0.8129463862002533,0.6118283725118924,0.7407882539487196,0.8636343864801725,0.30870908406345055
0.4498392914362083,0.19597880281697655,0.48320565402110793,0.8174095465558241,0.6152972593242535,0.7443545823619285,0.86961962568902,0.3112070370419837
0.4529106602118166,0.19631507403910664,0.486155687247842,0.8210701183697787,0.6182620651728151,0.748257462097579,0.875855768880384,0.3140448144939887
0.4558258314043451,0.19650737605920213,0.48880903851545293,0.8242469411691125,0.6209223539940361,0.7525119296618907,0.8820250241547541,0.3172985125621766
0.4585754064664156,0.19654840768585843,0.49135655965168684,0.8271986642369888,0.6231751294187807,0.7567709871703652,0.8874958625031238,0.3208065105907759
0.46109038156215876,0.19657842204370743,0.49421491933283546,0.8303868647617173,0.6248687767164733,0.7607829430092627,0.8922131213622558,0.32444070966970756
0.46359247402824855,0.1967917615960007,0.4976553461228707,0.8342862629508249,0.6260326443856149,0.7643139676720707,0.8967599285077856,0.32816537316138944
0.4663405802974242,0.1972003116004937,0.5013684139385778,0.8386616095240419,0.6268156641898991,0.7672678904600712,0.9015471446951621,0.33177908121988153
0.4693414142554479,0.19771496304992622,0.5048840451914282,0.8429731789273157,0.6276414736245182,0.7696869961374759,0.9065663868336518,0.3351628195812113
0.4724072613646294,0.19827712066928752,0.5080469627314246,0.8469588279251592,0.628694622659192,0.7715921903974672,0.9117291806748336,0.33840354654917754
0.47522478262200496,0.19883068965461667,0.5108894984671278,0.8504149213976983,0.6297703225323188,0.7733315783504449,0.9166966918883305,0.3416648110575135
0.47783547898984036,0.19937550880083696,0.5134495745435567,0.8532274161605121,0.6308130671146152,0.775057777052022,0.9210915115377941,0.3448890844442604
0.48070714869266773,0.19986463067664884,0.5157503659372177,0.8555820282625597,0.6315692155609909,0.776495569003925,0.9247604489673579,0.34797457206515703
0.4841867198987694,0.20025988773982,0.5179881256559268,0.8577036469516074,0.631890029373282,0.7778566778311178,0.9281660932440063,0.35106473123495047
0.48826447400221495,0.20065858077256574,0.5201834902727446,0.8595201175275659,0.6321551583927306,0.7799387503797873,0.9323395491720775,0.35424997895181476
0.49256949570071185,0.2010802334100304,0.5220353147019482,0.8610763766898306,0.6327545518509597,0.782654958475869,0.9372634791370873,0.3573960747348958
0.49667322339937486,0.20144989533789187,0.5233695334026722,0.8626830977373648,0.6335928737185079,0.7852396676383282,0.9419109953428568,0.36032784782078053
0.500928112323652,0.201809584721109,0.5243343846426188,0.8641894456043143,0.6344249233037829,0.7876827250472912,0.9459218953567884,0.3630116657212039
0.5060589406945839,0.20221287530581697,0.5254130050614811,0.8652573441959399,0.6355042361438313,0.790215250192055,0.9495138645802018,0.36542896878539144
0.5120160039626496,0.2026374251303367,0.5268534755873285,0.8659716754592782,0.6370329756116208,0.7926570753345412,0.952668210617221,0.3675555752456815
0.5183230588129617,0.20315544596609186,0.5284180443756911,0.866400602122424,0.6388430443866272,0.7950565862160262,0.9552203848808487,0.3696628168165291
0.5248117158478726,0.2039629544148629,0.5302736428887561,0.8665761705811168,0.6407666924802239,0.797540338212819,0.957695538141919,0.371983509012619
0.531467818919736,0.20517362394016042,0.5328203617396752,0.867003981958025,0.6425564326440864,0.7998950080331904,0.960763223261974,0.37439247435382217
0.5380704008180807,0.20659493101187626,0.5356980969318169,0.8678331245781857,0.6439890337036647,0.8020971880139014,0.9638732249073179,0.37672308821197614
0.5443680327014225,0.2079288538871312,0.5382812636150746,0.8684569936122184,0.6450251448933284,0.8042449820965175,0.9665259410424581,0.3788962739457575
0.5501940518067241,0.20911772855710373,0.5405801687712429,0.8686699566571019,0.6455673346854155,0.8067665811993434,0.9696412863958382,0.3808967168680621
0.5555566420875607,0.21021351217989928,0.5429726733929184,0.8685164083907718,0.6457702627212044,0.8106729436257663,0.9736708518796147,0.38263638908835196
0.5607582612463105,0.21119913437857057,0.5454858299516129,0.8679321928386458,0.6459827738624979,0.8159402370340278,0.9775881833003891,0.38405139770448543
0.5659145438851757,0.21212523248726822,0.5477977292206033,0.8669900768736111,0.646297849854844,0.8214879701014001,0.9809263592142214,0.38518791507325834
0.5709355646968494,0.21302692888619065,0.5496608188530338,0.865546060185164,0.6468377625498818,0.8270177898949421,0.983907903418662,0.3861238057068483
0.5758892137292655,0.21383086795799627,0.5512131509460952,0.8634896285565816,0.6475119886701298,0.8324983923549096,0.9863381707474533,0.38702734746234396
0.5808538677299171,0.21450040599996686,0.5526739957808459,0.8608961823221551,0.6479596849559531,0.8375388397732766,0.988178597811486,0.3879057597452858
0.5856905363237731,0.21505410909876155,0.554012488933973,0.857731388381878,0.6481167178433231,0.8422871125224313,0.9901015776372627,0.38855202196065736
0.5902396488916662,0.21557002194572256,0.555259398946574,0.8540298167672483,0.6483432365052103,0.8468716704595408,0.9924627077947596,0.38885525139735
0.594556111362363,0.21612952013506048,0.5564308737814596,0.8500657477971049,0.648836581280351,0.8509742761313066,0.9946790482127364,0.38885012011252196
0.5985990649056236,0.2167167975399442,0.5575290605899068,0.8461485976794867,0.6495245070066452,0.854779061460886,0.9964538832491688,0.3886302647331057
0.6022093431465636,0.21725653450333893,0.5585694558790952,0.8423269109310845,0.6504513813960975,0.858455758247412,0.9978782311103465,0.38823197245173724
0.6053019737576208,0.21771684610572356,0.5596204261621589,0.8385734848429818,0.6512983718895545,0.8615517382500344,0.9990127492423692,0.3876032084186312
0.6080301851470172,0.21812079734223158,0.5608275882351784,0.8350494396507258,0.6517538923873523,0.8641293640388817,0.99979539177924,0.3867211653496182
0.6105676426197861,0.218483819346299,0.5620091543314761,0.8316947219115307,0.651874630685151,0.8666566317768207,1.0,0.38565118900987994
0.6126995493997635,0.21889425768119183,0.5630915505358252,0.8282511457852484,0.651554671446801,0.8689795129785179,0.9997852146975932,0.384516140502774
0.6143679255134802,0.21952349036324137,0.5642786200470029,0.8247125253754395,0.65075330107992,0.8710845890753826,0.999276443800455,0.3833734310755279
0.6158386838921883,0.22032128618564373,0.5654042052085761,0.8210797213153179,0.6495457012473583,0.8733938219168316,0.9982061439534452,0.3822512406731878
0.6177274141799178,0.22108565712287745,0.5661155356539949,0.8173402758581574,0.6480910960858187,0.8757623911014617,0.9963857999138344,0.3813503396419498
0.6206158652786369,0.22176383011303577,0.5663162654055882,0.8135291772595825,0.6466289463081812,0.8776906707808029,0.9939834823536103,0.38077564254224655
0.6241034488124637,0.2223120945902247,0.5660551333170927,0.8095529293620465,0.6454083716914041,0.8792494203201862,0.9918023716674811,0.3802728342346719
0.6274787943263263,0.22272219467814658,0.5655864707074794,0.8052353410444972,0.6449950447105259,0.8807941769290757,0.9903430932561843,0.37962532559332307
0.6304025369298047,0.22304654024674142,0.5651403850408366,0.8005820421543987,0.6454010860709878,0.8823039994624065,0.9891477867178055,0.37894031920316656
0.6327711317635154,0.22325511496646527,0.5645558629739988,0.7959530975635595,0.6459687032945908,0.8839661551054004,0.9880322999896738,0.3783471390372214
0.6347668796808162,0.22345972371351144,0.5639197162124551,0.7915056948196635,0.6463894589536247,0.8862270641977971,0.9870611008690068,0.37766853253521926
0.6367116103613059,0.2239010356469973,0.5636693893541661,0.7872964120523749,0.6466626429448595,0.888871317636478,0.9858678152538197,0.37679520594247107
0.6386858947628786,0.22456833845816757,0.5638752751631011,0.7836332050817146,0.647095272385236,0.891271282000357,0.9841088906781074,0.37585681139394195
0.6404458481946319,0.225230530689267,0.5643100849659098,0.7803755328792102,0.6477936619060791,0.8931277022913621,0.9818975232648509,0.37489051223455483
0.6419255400741835,0.22584039344395343,0.5648564755200196,0.7771679338080609,0.6485516956306374,0.8946161836265426,0.9798572453235432,0.373891768042146
0.6432560681647157,0.22649321534333228,0.5654555827978295,0.7740380724228981,0.6493526778996148,0.8962059231282814,0.978189856271412,0.3728629529823601
0.6443022249990756,0.2271196397415747,0.5660911656162,0.7710056500735971,0.6501872830757516,0.8980046469173423,0.9762790256129673,0.37171944967595166
0.6451154740337571,0.227673407325227,0.5666941657261336,0.768015872395034,0.6510599302272162,0.8994800323285769,0.973809565457387,0.3704272303070795
0.6459859615194768,0.2282106284982172,0.5670848961323037,0.7651299462334955,0.6520817849249391,0.9004374414901574,0.9708883673447665,0.3691009803507323
0.6468435001420146,0.22867133006664994,0.5671652288040289,0.7622124256785411,0.6533189221176045,0.9011525256855951,0.9676716014591915,0.3678905500520285
0.6477212544832561,0.22903164869666462,0.566888401342294,0.759093665578531,0.6545668993722434,0.9015883234198284,0.9645696889661851,0.36703945521104336
0.6488849367923732,0.22937583024679714,0.566263515918503,0.7558522815695705,0.6555632885655519,0.9014957985091039,0.9617076665869173,0.36667999309883886
0.6502741965510631,0.2296440701025804,0.5654400202219523,0.7526304508682601,0.6563715484726753,0.9008445116069259,0.9585897980264255,0.36659725353204775
0.6518778897510483,0.2298260375340945,0.5645209435154843,0.7494237482775695,0.6571261073061145,0.8997462906349815,0.9550162609896514,0.3666522579172397
0.6538857282642213,0.23002559525794514,0.563437781212711,0.7461008931692834,0.6576547354309221,0.8983820808665396,0.9513312329742623,0.36683896730545434
0.656204665485545,0.2302016704795791,0.5621652798237543,0.742583223705493,0.6582876664072872,0.8971191138239539,0.9477570671603572,0.36716484993376336
0.6584913316698916,0.23031499794794746,0.5608599868392806,0.7391901557779428,0.6600828232713154,0.8960344406344151,0.944660123991263,0.3676703449049534
0.6606446322554068,0.23048854221388237,0.5597987115585069,0.7365547160963247,0.6630280825743202,0.8948338644570968,0.9423435808253378,0.36842070439940133
0.6629557799745995,0.23083318015129653,0.5588916430129958,0.7347334426752444,0.6660075549236923,0.8932026552904724,0.9401539670867409,0.36941793498924724
0.6653287667018205,0.23124085462014257,0.5577652281838125,0.7334988204953921,0.6686491495778009,0.891288134818156,0.9374995168568263,0.37036284977357176
0.667290597383711,0.2315680276637877,0.5563498550859257,0.7327062006249868,0.6713527845083798,0.8895256781663865,0.9343963069687183,0.3711164049129655
0.6686834105202628,0.23176439408034893,0.554886769676681,0.7323772562174685,0.6743137321104289,0.8879103787400328,0.9308668348184426,0.3719669987587393
0.6697512253365621,0.2318488205739708,0.5536000943601087,0.7328264529240103,0.67716359634559,0.8862903101044496,0.9269597754935012,0.37335086614495355
0.6706809689654395,0.23186620585863232,0.5523563720763254,0.7339727402428656,0.6796704447314308,0.8845134666395047,0.9226485078817803,0.3752769266991861
0.671464371956638,0.23175258697296516,0.5510747055292154,0.7353167017214737,0.6820072261729685,0.8824011699158367,0.9179413877348613,0.3772316845585819
0.6721204093189341,0.23146027893519927,0.5498047826832507,0.7364472924098517,0.6840854717829348,0.8799499789240515,0.9129470791766204,0.37896462514641144
0.6724266600911568,0.23107087461928602,0.548433658009374,0.7372657178385911,0.685700459631887,0.8771636153233102,0.9077430576331235,0.38052383050708327
0.6721573346977197,0.23068257277554813,0.5471275159998238,0.7377646955622291,0.6867704727190473,0.8740793924016428,0.9022699151148674,0.3819888907171316
0.6713711353498779,0.23030238632939803,0.5459917690100093,0.7378038489270886,0.6874786235140703,0.8707734052378032,0.8964242834252749,0.3833156808775063
0.6703119190014862,0.22985009821151056,0.5448128442115943,0.7372292876014098,0.6884416894204115,0.8670311601691832,0.8902480510211288,0.38433509395720195
0.6692332669226568,0.22925573285518314,0.543513524680331,0.7362554427876725,0.690516837024682,0.8626479058183354,0.8838083490313595,0.38509961898065304
0.6681638089051185,0.22855278205325816,0.5419532057475946,0.7352549616330091,0.6936938516471304,0.8577693910648581,0.8772766209422354,0.3857733712908871
0.6670573762232357,0.2278068167714379,0.5399909589308488,0.7343235709136161,0.6968453443759335,0.8528698069274533,0.8708035768734625,0.38640644675044045
0.6659768174374469,0.2270204264427596,0.5377130045037918,0.7333588780993286,0.6994612492185933,0.8484495598466789,0.8642926266321393,0.38704680351074533
0.6649153654197724,0.22620949890911402,0.5353826414814832,0.7321894269183489,0.7016826625409341,0.8443717398882619,0.8577851331589211,0.38764001929648684
0.6636993798167472,0.22536919741186626,0.5332517774689647,0.7310391949796333,0.7033774918700609,0.8402309320088421,0.8514744355211771,0.3881942559232584
0.6622765764590575,0.2245283535095414,0.5315745523976287,0.7303697883971181,0.7045937281773257,0.8359937553928296,0.8453580742713421,0.3890048541842761
0.6606573165118148,0.2238215216371064,0.5305601944816195,0.73028799166668,0.7057855821767697,0.8319359267606861,0.8394134513585825,0.3900799488269649
0.6588450145941455,0.2232836762503826,0.5298866952668778,0.7305610838155348,0.7072939464362468,0.828220718736669,0.833638842820299,0.3911061399391988
0.6569500985744062,0.22279433185292277,0.5291454212133886,0.7309059408589001,0.7089030317297097,0.8244891594695661,0.8279789478397793,0.3919107271588059
0.6548776986660821,0.2221980762555092,0.5283801489441409,0.7313859707622818,0.7102993537314735,0.8204313222618612,0.822507791150623,0.39240227448643256
0.6524837514910017,0.2214332715311186,0.5276728916046493,0.7321084971923675,0.7115643557877602,0.8163126838395677,0.8171489074376947,0.3925203654317134
0.6499851201388069,0.22053472439188018,0.5269549513497457,0.732714614972945,0.7126891513935383,0.812313697490314,0.8118156739866446,0.39236134647647436
0.6474890553802847,0.2195425440520944,0.5261205102788485,0.7329881611411182,0.7134848548170831,0.8081522142669924,0.8066391581567636,0.39209119026618205
0.6448307066183533,0.21847512926151638,0.5249882299726608,0.7329834396699563,0.7140318585352858,0.8039329166908901,0.8015239438141339,0.3917952186856665
0.6420196925852788,0.21733009399950756,0.5235052870322819,0.7325922004316818,0.7143337560716597,0.8002774984051562,0.7962516689477911,0.3914614674093943
0.6390319316364407,0.21610523087072672,0.521822070736268,0.7317179565634755,0.7143741635603427,0.7972117860410792,0.7907607033800593,0.3909448094284204
0.6357576418609434,0.2148185633362654,0.5199622811745755,0.7303290540642977,0.7143984137816551,0.7943721292356584,0.7852263146811904,0.3902135762711193
0.6323795847196553,0.2135208210627943,0.5180022466217663,0.7284425130487029,0.7143737556882687,0.7917180161821504,0.7798295677677588,0.3894315754900563
0.6292398285666734,0.21233408537972653,0.5164162324350479,0.7264428219158471,0.7141686193786463,0.7891503428500329,0.7747234683939552,0.3886753137269659
0.6264447101718624,0.21132822356193767,0.5153098634345116,0.7247847872557373,0.7138445334517131,0.7864806250955284,0.769947117378447,0.3878909149480773
0.6239953232620775,0.21040274323360625,0.5143357523793666,0.723776088459802,0.7133735501340778,0.7836356433864818,0.765143126716528,0.3870268715384655
0.6219391819321503,0.20952830098635208,0.5134890922676257,0.723536572604191,0.712769193704758,0.7806257606983168,0.7601301287560276,0.38604736301488046
0.6200271738531449,0.2087503247900249,0.5127250462213119,0.7234714249153334,0.7123788271978015,0.7774075612378598,0.75504907904416,0.3849382948572153
0.6178470382428524,0.2079985141296406,0.5117666376546411,0.7229981388332447,0.7123807349879313,0.7738996012943729,0.7501284767759342,0.38379997134341143
0.6153189283618109,0.20719891227683543,0.5104694611851607,0.7220279322131659,0.712396826910723,0.7702047769085284,0.7454797612433361,0.38269493636971635
0.6126609852456296,0.2063276242091188,0.5089564660278775,0.7206769394253613,0.712272694094862,0.7667961064751803,0.7408615968915998,0.38155595063787534
0.6099950782643293,0.20545546586032237,0.5074457561482845,0.7191034173710966,0.7121816988878885,0.7640188012190973,0.7362369988968824,0.3802919857830409
0.607330813215449,0.20464349065020504,0.5059721205013394,0.7173319273975972,0.7123230677255639,0.7617478163297455,0.7317778604495735,0.3788495196285288
0.6047241785577159,0.20384975142621264,0.5044283954120706,0.7157605680637471,0.7132281287239403,0.7603377549086064,0.7275548417953113,0.3772845034726125
0.6021952442880927,0.20316113942789374,0.5028792906653388,0.7147365150445869,0.714956424208817,0.7601336650975398,0.723541701228618,0.3756973771690696
0.5996427860458869,0.2026205527024845,0.5014669406401158,0.7139762208660586,0.7168888328664174,0.7603612537921826,0.7193988949433462,0.3740438321337948
0.5968429678911108,0.20205493166421043,0.5000797907465029,0.7131881474800952,0.7186468915934464,0.760239343336866,0.714888677046688,0.37225480557731516
0.5937423826804833,0.20137230692526492,0.4986044238636827,0.7121803702332911,0.7200559589414453,0.759876842734505,0.7101115996738302,0.3703512841277262
0.590430639557264,0.2006185377918145,0.49693912268394824,0.7108096326469943,0.721009493253447,0.7596255407809493,0.7051975327403672,0.368306651269924
0.5869067400364034,0.19984424533270032,0.4951271785663087,0.7091264607735369,0.7214461382941462,0.759688112386239,0.7004045538304086,0.3661825007826396
0.5831833057550967,0.1990443829920231,0.49343077964765353,0.7074201809733625,0.7214681660677359,0.7601177168920227,0.6959326068433077,0.3640645703912081
0.5792458586820908,0.19818740438815877,0.4917930548901981,0.7058739654982014,0.7213476393073955,0.7606706672011792,0.6917252566124493,0.3618409732993297
0.5750540127472581,0.19728999085037016,0.4900124570250263,0.7042015412392683,0.7212179023987164,0.7610602592462473,0.6880358188754537,0.3594114728681209
0.5706897296910763,0.196381509744318,0.4881169717081897,0.7022562304398802,0.7210661089253017,0.7613132737129688,0.6849188944717772,0.356787362427358
0.566238261929299,0.19547000506051726,0.4860599338629274,0.7004662989762566,0.7207329010317999,0.7615156329411837,0.6818177369368542,0.3540398060110765
0.5616809519802194,0.19451637246728593,0.4837032589157803,0.6991008468182832,0.7200325913426953,0.7615289378193572,0.6784672169044742,0.35121025048866167
0.5571204025061781,0.19348993358938307,0.48110235893774317,0.6978552498846468,0.7190219245815627,0.7613747630177599,0.6748613476028732,0.34841865221557905
0.5527951655996275,0.1924416449605275,0.47838401927420676,0.6965717253069795,0.7177220494141394,0.7612945438285391,0.6712219713877312,0.34597361071000576
0.5487794226315194,0.1914470136419449,0.4755893975763637,0.6953267059379293,0.7163139375746446,0.7611915405011602,0.6678081241893575,0.34394265787025513
0.5449165100855748,0.19054478386214865,0.47284485398452303,0.6941130345153135,0.7152048093217444,0.760812776336136,0.6644728961604542,0.34214261082707403
0.5412168878174141,0.18972512528112018,0.47022440746563,0.6927700575954754,0.7144830320327168,0.7601772865124122,0.6616038760912255,0.34047156973601306
0.5376837175352975,0.18899861289448736,0.4677051372286233,0.6911509139331277,0.7141124118262581,0.7593369566330088,0.6597585662100457,0.3389389136645293
0.53413265613644,0.18841538794560894,0.46531850848966694,0.6892424240828886,0.7138306662133939,0.75836835911998,0.6585131619785181,0.337520050727659
0.5305010498847583,0.1879229850766999,0.46292065623764245,0.68711249212464,0.7132196758814645,0.7573916643526675,0.6572477461420968,0.3360710006787275
0.5267424174143989,0.18741095761130766,0.46045420959121736,0.6849600041477262,0.7122809665593808,0.7562009025659622,0.6558708066517811,0.33450087094598063
0.522919395170806,0.18684722292136935,0.45806493564449546,0.682721158902147,0.7112703803227658,0.7546861787554288,0.6546960731534403,0.3327830092966782
0.5191721912637453,0.18618777058362207,0.45589887843841226,0.680321639169804,0.710426024729672,0.7531170997462727,0.6540033886765458,0.3308920643318677
0.5154275830977505,0.18543071084014418,0.4539751728006876,0.6782588185089505,0.7099019540784103,0.751477484598824,0.6535317795363349,0.3288173253403775
0.511575411831259,0.18462781792182723,0.4520043341641371,0.677001445435982,0.7095844666075425,0.7495379731030659,0.6531116310205183,0.32658884022544105
0.5077644758237784,0.1838286603908428,0.449816478666794,0.6762482939076468,0.7092776847693932,0.7473134701263245,0.6534163938347743,0.3242956731382652
0.5040635218995657,0.18311407890633616,0.44766384364766865,0.6755770221804446,0.7088677782943518,0.7448519377370056,0.6546616520721515,0.32196290668850386
0.5002975088687444,0.1824342863080882,0.4456940677772183,0.6748978027253896,0.7085468310546036,0.7421459949519709,0.6559695887738156,0.3195945138560355
0.49650632957691654,0.18169482373735557,0.4439211642244835,0.6742383804811408,0.7088261055320813,0.7392088753635496,0.656761225378252,0.3172879327226673
0.4928485147443084,0.18090568408984156,0.4424385785797752,0.6739930030583533,0.7096324469969726,0.7361604359335743,0.6571652093811893,0.3150427040361234
0.4894421474032847,0.1801032177833687,0.4409944316867968,0.6741840302124417,0.710307006940771,0.7332157218653496,0.6576994432795672,0.31281152759065606
0.48634644874208793,0.17929546462970308,0.43936781088362037,0.6744580152731674,0.7108348029968657,0.7302527213949419,0.6585783876098338,0.31063606251090126
0.48351747717088533,0.17847006230162893,0.43789582796721604,0.6750517830290254,0.7115426292297758,0.726920734200384,0.6593248831232826,0.3085360459208946
0.48090625717765423,0.17763526059480744,0.4368071924442115,0.6761380703709429,0.7121411687547483,0.7231320366428482,0.6596096671575096,0.3065035405845426
0.4783721279627818,0.1767387862863073,0.43599937905052544,0.6775673923385911,0.7123069811654946,0.7189368772379467,0.6594859588258237,0.30447071542373894
0.47591418598453555,0.17573738325038954,0.4356414849430653,0.679082767639927,0.7121322566057635,0.7143569694819427,0.6589850010454119,0.3024128030832896
0.4736852703572013,0.17469006572767307,0.4358079071657393,0.6804717291367863,0.7119060863656588,0.7097143226688861,0.6584713409486624,0.30043316985502405
0.4715772910012378,0.173619897973629,0.4361948901143716,0.681832032712674,0.7116710401631147,0.7053303852316248,0.6584608449067495,0.2985838128592538
0.46931958942469015,0.17250216233740787,0.4365250372575646,0.6831836683115992,0.7113274413247642,0.700930708857923,0.6587377647227951,0.2968742281143496
0.4670679426628194,0.17136006290916087,0.43658654920182643,0.6845658234189108,0.7110073720005734,0.6962661588534104,0.6588480700383234,0.29549388479735816
0.4653390798860817,0.1702091329821331,0.4363910404594049,0.6859825233405554,0.7107234905991637,0.6914797821064372,0.6585582004650065,0.29446992364455277
0.4641320097936418,0.16902412363016744,0.43633765429602406,0.6873640396110741,0.7105346721831408,0.6871163700322849,0.6577521068999465,0.2935805815879897
0.4629371478903983,0.16784108964142386,0.4366877042936443,0.688911146041125,0.7106576044435748,0.6836297715274046,0.6567338108459119,0.29276737954652793
0.46143419141730835,0.16674800472159684,0.4371090808041979,0.6907421861873753,0.7109649599385045,0.6805105468418013,0.6557675832002836,0.2920478517121611
0.4599054182060402,0.16572195745616244,0.4372238639954163,0.6927093344990727,0.7111074439186835,0.6772108663407674,0.6545311682936504,0.29144536582303815
0.4587880131095315,0.16470085163099044,0.43704526646991637,0.6945105950771914,0.7109851082684809,0.6737551295098753,0.6527968068015174,0.2908952437409058
0.45787797164918315,0.1636787723676331,0.436699871120008,0.6959241153496577,0.7106296370451202,0.6705479255714468,0.6507014732876091,0.2902553359979561
0.4569130948932025,0.1626366908580166,0.43628217722696244,0.6971392152287559,0.7100381327399811,0.6679225342118699,0.6483698524460095,0.2895034183224278
0.45591675517131475,0.16158985429772346,0.43584921750962025,0.6984508402621117,0.7093818864421633,0.6655620246609805,0.6460016702024807,0.2886718279993051
0.4549313973756449,0.16055285188597065,0.43539538740541817,0.6998669014394039,0.7088047502016159,0.6633301319218227,0.6437278348387416,0.2878651194685067
0.4541179584716142,0.15948614170161243,0.4349153460545035,0.7010605674341063,0.7081834961997079,0.6614039422925683,0.6415397556750838,0.2873370565419376
0.4535967859483679,0.158458904117297,0.4346580762539492,0.7020871519938728,0.7073401206513369,0.6596717413409972,0.6394491904214494,0.2871562715668836
0.45329550855503203,0.15761082056833656,0.4349551292101659,0.7035412887264468,0.7062650325051266,0.6578192174712114,0.6373736883394476,0.28710058307821024
0.45291067933943313,0.1568881227705577,0.4356082945006748,0.7052960186437445,0.7051766036461873,0.6555525200319461,0.6352477390624054,0.28698408784430846
0.4522390361061499,0.15621920009736018,0.43638751567062845,0.7068284524763037,0.7042436134750862,0.652998811101889,0.6330220996751735,0.28676942504661546
0.45143409620364694,0.1556090474358406,0.4373935377729481,0.7082470602397759,0.7035203815277081,0.6504872684330743,0.6305829038816453,0.28654798533365794
0.4506361484161173,0.1550356420583899,0.4385887898062179,0.7095955345462276,0.7028580856800859,0.6479181950568402,0.6278882993128451,0.2863603927160413
0.4497587418557441,0.15451799851188544,0.4398101176484359,0.7109090510426735,0.7020073369743791,0.6451026786524453,0.6248784410683244,0.28621872934043424
0.4487794327721365,0.15408762311470425,0.4409148039896642,0.7125021005954539,0.7009102866810967,0.6420407750210009,0.6215431909233112,0.2861411939202235
0.44786405783422256,0.1537478249680503,0.4419870825862615,0.7144144853711053,0.6995920692020561,0.6387461473181442,0.6179467108637217,0.2860448430959973
0.44705752411419736,0.15344150833789502,0.44327470684645337,0.7167107133991365,0.698137113800489,0.6352722053541126,0.6140703953825325,0.2858770999034531
0.4462087894385465,0.15312071229077454,0.44471358788719384,0.7193652014472055,0.6966263127659923,0.6315766077036021,0.6100839243789538,0.2855810551504889
0.44536730878384023,0.15275963194045233,0.4461286146434366,0.7222996445258404,0.6950234358015905,0.6275990090759719,0.6063302311976471,0.28512914039281423
0.44476090175380645,0.1523536805405349,0.44741248235031805,0.7253987544889337,0.6931535109022067,0.623348818360452,0.6028496258005476,0.28458873904994464
0.4444802276724376,0.15193194375862365,0.44845598998509717,0.7282645981857482,0.6909363449244437,0.6189757037778492,0.5995065679702458,0.28398427600900233
0.44445122876895904,0.15152225854591897,0.4493822364932427,0.7308778019047936,0.6883624244046407,0.6149505599466016,0.5963718533998129,0.28335254849708547
0.4445560208956989,0.1511445545728989,0.45032914246319855,0.7335343175974419,0.6855633987600815,0.6115028457059393,0.5935263720279459,0.2827287809911949
0.4446215399626337,0.15075769097668384,0.4512079785295278,0.7361762107549932,0.6830799428900043,0.6083099287003835,0.5908132109827283,0.28206642810744786
0.44444885075372925,0.1503223235680718,0.45196736666667436,0.7383803511286535,0.6811080054888861,0.6050027774126857,0.5879885451439044,0.28136112012981007
0.44406184355358097,0.14982760855558983,0.452691995951433,0.7402104355671242,0.6794400549083557,0.6015628050717443,0.5849329140057455,0.2805819748878637
0.4435370650063538,0.1492431728129654,0.4532890739343683,0.742021935997758,0.6780845491611001,0.598286600694257,0.5817061061669314,0.27968615161365634
0.4427807194763051,0.14856679355454652,0.45352955869034584,0.7435865886842,0.6767684669860338,0.5952504419426575,0.5783989070643638,0.27872638724473076
0.4418169721247909,0.1478365490792412,0.45336854068999816,0.744632800075451,0.6752907871486727,0.5922195060932052,0.5750915485921214,0.27769970106309977
0.4407560556212075,0.14706885708407752,0.4530308877980832,0.7451553458572191,0.6739140249524121,0.5891563766280824,0.5717538009486827,0.2766233643529964
0.43958315896441924,0.1462928298748115,0.4529658748734747,0.7456177511005809,0.6726217521553622,0.586219186764858,0.5682431161269026,0.2755540615114257
0.43830428075707506,0.14557643841540943,0.4532753779718512,0.7465370013386257,0.6711842223248671,0.5833451257135567,0.5646172003619612,0.2744858332618443
0.43692526124303144,0.14493784064811394,0.45360852549102754,0.7476048602617966,0.6695422760994435,0.5803603900429076,0.5609514212987727,0.27341297825850813
0.4354985852296754,0.14433415674560546,0.45379013349096403,0.7485932024465616,0.6676194644545105,0.577386332057287,0.5572644222338058,0.2724169647859172
0.43413467632423897,0.14375108038968232,0.4538934715325423,0.749624876391316,0.6653563036249617,0.5746727393103497,0.5538548668550498,0.27170267975960394
0.43277195007869756,0.14322839470002222,0.45416253552332236,0.7506100856378279,0.6633380749747614,0.5720905655664774,0.5507741637754066,0.2712385120312551
0.4312779516413454,0.142850897343864,0.45479712843722137,0.7517237330221548,0.6623450257119791,0.569302295055713,0.547663326889714,0.2708000900143498
0.4296999437040526,0.14269956082351534,0.45570052162240404,0.753320203463361,0.6622533325854854,0.5663663775621184,0.5447473055037069,0.2703599743468277
0.4281300178806889,0.14268447167655068,0.4566528972603555,0.7550827919737737,0.6625358398427292,0.5636129895207139,0.5430500858229185,0.26996546521112813
0.42668968579011995,0.14269943434847304,0.45747068653393774,0.7564008421330529,0.6631693274139084,0.5610636009096357,0.5429816725994884,0.2696483913591748
0.4256154006631221,0.14284341776438772,0.45803860137376445,0.7571252505966345,0.6641780471180008,0.5584176259533158,0.5436690354443201,0.26936557812793194
0.42483880496502197,0.14314410592103013,0.458340208301938,0.7573279171589459,0.6650900740096883,0.5555748411928966,0.5442964108681835,0.2690222063568847
0.4239866704374707,0.14351416726152608,0.4583466731741002,0.7570313191431911,0.6656212334711026,0.5527671802729776,0.5448323702421823,0.2687081566049489
0.422862523777447,0.1439168000410192,0.4580106419501866,0.7562306952822616,0.6659346547911176,0.5501228605868157,0.5453940299576353,0.2684826314272788
0.421539444511352,0.14429002652095685,0.45739412434706267,0.7550958126287747,0.6661331008385832,0.5475905351678426,0.5458125820719488,0.26817485274788555
0.42010758631722017,0.1446013344939276,0.456710483104314,0.7538361851679425,0.6661812607042699,0.5451410381389948,0.5459734942553627,0.2677017747383422
0.41864660419065913,0.1448531141626148,0.45614381594245096,0.7526523426106126,0.666185908090005,0.5426728456038777,0.5458811212874664,0.2670910952888809
0.41722603377717365,0.14502096551448102,0.4555558675960661,0.7517025974474361,0.666302706346771,0.5401824669287272,0.5455198153733576,0.26648978866127476
0.4157920027692249,0.14508162989926165,0.45470075019045225,0.7507570570979006,0.6663728921034398,0.5378939070301179,0.5450687610215732,0.2662657555482974
0.41431973676362205,0.1451266241047629,0.4536711309217077,0.7495757573459269,0.6661242990880836,0.5358540926977328,0.5446125252831898,0.266456304952889
0.41274545915023514,0.14526356092664824,0.4526360499304335,0.7480363648150138,0.6655777062089809,0.5338201752792983,0.5439979968433829,0.26667550920179184
0.4111219245220966,0.1454481969482039,0.4515098264637822,0.746196042810941,0.6648401945031889,0.531539795876604,0.5432995073504399,0.266728018762904
0.409593245864112,0.14565153726670102,0.4502573928106777,0.744591149759018,0.663793739492743,0.5289389489782986,0.5426417269646934,0.26674137405447906
0.4080096859350786,0.14585920084176762,0.44890550060902684,0.7433801530580073,0.6623524876912016,0.5260741876001446,0.5418496868552385,0.26693121421607463
0.40622138155400633,0.14603068358976637,0.44749989285222297,0.7420924596788586,0.660581788631302,0.5229664321936243,0.5408029529914977,0.26726962872309
0.404285758334829,0.14619413605735004,0.44612449229515194,0.7406524143132867,0.6587918503590161,0.5196292427253985,0.5396005213862911,0.26751582596802304
0.40225788861236345,0.1463764932246331,0.44469239670156896,0.7391148295694319,0.6572259313601941,0.5162362742992556,0.5382904346869029,0.2675666004199961
0.4002707719880814,0.1465433277379355,0.4430804192974904,0.7374787426358912,0.6558423786049778,0.512967061365933,0.5370725286632524,0.26743039541562325
0.39848501881595755,0.14673526881152152,0.4413848507502798,0.7362514601540966,0.6547950657582784,0.510040018669981,0.5360776923755322,0.2671422117084662
0.3969136604738605,0.14704464345775425,0.43975136562398504,0.7356437242894065,0.6541506236333311,0.507623623385755,0.5349762666851436,0.26680253531520703
0.39546866574718426,0.14741256213067158,0.4380785537148771,0.7352347272592646,0.6536180429975403,0.5055709844008608,0.533559996399242,0.2664273037628451
0.39389187213048626,0.14772915025378922,0.4362694497013445,0.7346819297578796,0.6528921089979505,0.5036810691798003,0.5320110796786384,0.2659916805934191
0.3921169839170046,0.1480498204516099,0.4343985824531126,0.7339586847450399,0.651848205820948,0.5016945646811093,0.5305172969918878,0.2656257438997047
0.3904150753225947,0.1484676891035873,0.4324236404972334,0.7332469322976225,0.6508354567671227,0.49955072662157995,0.5289707193021366,0.2654872815516777
0.38901194044640774,0.1489915008050229,0.4302908796310151,0.7326137196840112,0.6505153951977585,0.4974924702732603,0.527241414925298,0.26556654202714897
0.38800292558461064,0.14966294763272572,0.4281429362115137,0.7318623525079564,0.650851542506333,0.495578237272107,0.5254192254741741,0.26572026828884
0.38733844809911033,0.15050839543854366,0.42632352738039025,0.7308315418757914,0.6513069252237796,0.4936632119257402,0.5235366904168324,0.26582472873995056
0.3867768547319182,0.15143254914988705,0.4249739097007684,0.7296614596833904,0.651608484008845,0.49162893032674765,0.5215313900774939,0.26586859153329173
0.3862607290669122,0.15230406315726822,0.4237941606720698,0.7286668416910939,0.6517024387610245,0.4895560843781043,0.5194039094193531,0.26586781958184375
0.3860292878805327,0.15309095382679824,0.42265769022505606,0.7280683455509988,0.6516110923893,0.48756869831977945,0.5173421326586138,0.2658444111552195
0.38607706922782775,0.15384294056390097,0.42169743390428455,0.7276420704951002,0.6512222384137404,0.4859056714227868,0.5155390877295711,0.2658862899546329
0.3862581739113087,0.1545875579865195,0.42086654543302227,0.7268460676380288,0.6505558667888662,0.4848286378967869,0.5138047510609759,0.2659370907728016
0.3864529721234697,0.15528429173248648,0.41999974223047976,0.7255634533977879,0.6496781683838659,0.4840323623573526,0.5119372326114849,0.2658225420388765
0.3864935318750315,0.1559211780900771,0.41917296735761794,0.7242913151425584,0.6484788268708598,0.48313768536985663,0.510124643703472,0.26553656791768643
0.3863530868738556,0.15654031865848755,0.4184655109785205,0.7232711201420807,0.6469863494727954,0.48231689570662756,0.5086404713598945,0.2652607288238494
0.38603963851171774,0.15721543235935148,0.4179597883580035,0.7224862188478115,0.6454957257633075,0.4817748394947422,0.5073983311823976,0.26511519780599185
0.3855476355847411,0.15803035243079858,0.4177611823519816,0.7220675490695014,0.6441955210060466,0.48124586106635336,0.5064557640914141,0.2649941633429497
0.3849187421860144,0.15896484474033926,0.4175623565605584,0.7220530875640385,0.6431455750996102,0.4806095556293846,0.5063021082912418,0.2647629586726662
0.38409265468716247,0.16001281092541395,0.4173835703508498,0.7228732418153297,0.6423895140033624,0.4801052099284117,0.5068497413093354,0.2644199086465187
0.3830386242286936,0.16114825022165782,0.4175918529609573,0.724611297859068,0.6414940813815435,0.4798813533373875,0.5075394686297648,0.26400363461610904
0.3818143756517687,0.1622459180004522,0.4180030338658416,0.7265169779364558,0.6405531156952021,0.47988589722520114,0.5081036972571907,0.2635110345593252
0.38046191771462057,0.16324622235756897,0.41826691522125137,0.7280529675332907,0.6402915871339007,0.47977461405268085,0.5084336749562107,0.26291915708200536
0.37911516076528085,0.16421928816077194,0.41842307313417065,0.7291268738724148,0.6404863296770805,0.4794122396377894,0.5084389735263591,0.2622061440192123
0.37784870276327903,0.16525896302255214,0.41871004650393345,0.7298580299174758,0.6406426247042395,0.4789838701399244,0.5080868955344445,0.26136457593846363
0.3766736488042698,0.16639477838909336,0.41920879092113494,0.730233880635038,0.6407419342477598,0.47859307633835213,0.5074133690232273,0.2604275956650721
0.3755737893359272,0.1675947159736738,0.4198360765931252,0.730236073657739,0.640719779268776,0.47825197452623014,0.5064263272562752,0.2594136259651068
0.374413199443384,0.16874116957680307,0.4204118771774943,0.7301148530530884,0.64051460001664,0.4778718171805426,0.5050734878383604,0.2583136195307544
0.37320232467723585,0.16978855490886066,0.42075735336622666,0.7301832528450238,0.6401144902784143,0.47733432135424403,0.5034121687955454,0.25722598054623264
0.3719712630721245,0.17078696760798512,0.42100252785015707,0.730626859462818,0.6395216213426389,0.476633471408881,0.5015910984986347,0.2562180811551338
0.37074882420186717,0.17176431575757636,0.4213521012966415,0.7312551047156184,0.6387181983759088,0.4758238444188148,0.4997259525433029,0.2552138837348517
0.36974307811933316,0.1727205711782332,0.4217142820158492,0.7315913415663241,0.6376807171651934,0.47486414739867516,0.4978739346081956,0.2542008249915929
0.3690258105860523,0.17361561155394223,0.4220748005713927,0.731581075469843,0.6363668630100131,0.4737283985957513,0.4959894605239556,0.253227069728469
0.3685049464111691,0.17445791891526827,0.422493554724435,0.7313931510269315,0.6349570633584262,0.47245208888285006,0.49400890051354135,0.25227179219687557
0.36810559394648545,0.1753292031008666,0.42288069208571244,0.7311290734032503,0.6340184688687458,0.4710425587159398,0.49192497031407656,0.2514220290859238
0.3677225689769663,0.1762875373025021,0.4232840145273484,0.7311601343641231,0.6336184262540038,0.4695604458107672,0.48965057055755207,0.2508344784183605
0.367215126718827,0.17726135389454298,0.4238762641309383,0.7317208585877305,0.6334664800795321,0.4680303930941661,0.4870891988721854,0.2503645935652067
0.3665891637931328,0.17812869273682896,0.42463528712912246,0.7326807122462073,0.6335252518639233,0.4663489857560461,0.4842691707521751,0.24979376431397657
0.3659640962200822,0.17885991382986066,0.4253458387965481,0.733600208853125,0.6335247756273331,0.46453111035745115,0.4812846804621774,0.24910687057387357
0.36545414977426427,0.17949365617399604,0.42602939738918033,0.7342863217920625,0.6332336181356323,0.4627449152407504,0.4781725000749857,0.24832299114124118
0.3650414421272007,0.18004691590777216,0.4267533355360507,0.7348488199731005,0.6327716676877745,0.46095731838406023,0.47492781123607486,0.24741366767256093
0.3645148815026064,0.1804624827852631,0.42732130690389536,0.7351788709625784,0.6321401063472507,0.4589494700257753,0.4718938025228829,0.24644540298553777
0.3638665519846999,0.18072588136603362,0.4276593094456614,0.7352060259679363,0.631266683062319,0.4567663097066038,0.46935174372177524,0.2455821561460765
0.36320934638900165,0.180890271709301,0.42794415929478147,0.7349233636561837,0.6302496689022129,0.4546114562120255,0.4670019006197262,0.24483356878265625
0.36263120233117346,0.1810199712279786,0.4284052137084329,0.7344248518910413,0.6290561699358669,0.45263953675040747,0.46459080854936274,0.24412852138788274
0.3622897051481276,0.18114979201187645,0.4290678001361642,0.7338005834272217,0.6276281482497649,0.4509180509392542,0.46206996928806326,0.24342568682819943
0.3620879833265787,0.1812328017785558,0.42975537219903565,0.7331702871003373,0.6261242649940946,0.4491703396717563,0.45940647002985724,0.24263873007996908
0.36189981031814183,0.18122415294307612,0.4304126926730879,0.7326484945905072,0.624616128278542,0.4472187091516344,0.456695999096195,0.24174532272417976
0.3617782666434042,0.18110109318462267,0.4309936399011583,0.7319969860830622,0.6230518913194504,0.445187566355105,0.45415047906863965,0.24080444087382738
0.3616737725001354,0.1808820850959097,0.4313939966499298,0.7310281348780495,0.6212884112069431,0.44306226966971346,0.4517785712327181,0.23980568404901006
0.3614987704569252,0.18063836921840015,0.43179505900656046,0.7299438736024708,0.619202329760582,0.4407419872493413,0.4494613597460847,0.23867898602373605
0.3613099811143481,0.18036456859974154,0.4323368141448534,0.7288371817426514,0.6168096800268253,0.43821737467936295,0.4472521924594937,0.23741093654482107
0.36114830160667943,0.17998870945361128,0.4327652447403954,0.7275696974526528,0.6140926645162749,0.4354930627950696,0.4450950193461397,0.23601558840177048
0.3609124206192393,0.17947547401154892,0.43287091130613436,0.7261228880389675,0.6110813739864646,0.4325268723106082,0.44282251468979367,0.23448644873782645
0.36058573254114457,0.1788781293173974,0.43264099414925317,0.7243789099856042,0.6078316194815702,0.4293254920941862,0.4403349090672293,0.23289098151468557
0.36022598654435634,0.178274452643807,0.43219058778707836,0.7222386996281742,0.6042900416584123,0.42610281197956235,0.4376773813708515,0.23134727062648666
0.35987508224115927,0.17770541769150539,0.4320378412234576,0.7202697902422875,0.6005997743816855,0.4232105384895688,0.43494011291243695,0.22984118537927398
0.3596332634919455,0.17717675437973074,0.43260455374437473,0.7192488952088512,0.5970917676649412,0.42077751070960195,0.43204229418650075,0.22837923068437838
0.35950270925431155,0.1766003012922257,0.43351792951694507,0.7189887119273228,0.5938617772031594,0.41868583113043767,0.42899369977649243,0.22702775975567116
0.35930487561566876,0.17592520409246085,0.43432743500531373,0.7188881277497721,0.5909142116900242,0.41697617303057516,0.42603114750363047,0.22577659017967638
0.359049563241332,0.17518983102488578,0.43507023227497676,0.7187664693857464,0.5881794700747389,0.4157405609931612,0.42351479997199065,0.22466937283177466
0.358853177654104,0.17447105690848158,0.4361296024827539,0.7185645965079945,0.5853099603703055,0.41475232304525117,0.4217820517066646,0.22366749125435528
0.3585729426731735,0.17381565602341967,0.4376779724943518,0.7182928757939017,0.5821805903480379,0.41368073750011936,0.42064674627701165,0.22263361611194246
0.3581392271383179,0.17314127570005708,0.43928475412081713,0.7179144891777823,0.5789527647802483,0.4124301715732118,0.4195758845638423,0.22153002014286158
0.3576594087869874,0.1724025901071641,0.4408121386800793,0.7175012968171642,0.5756338784426098,0.4110764699769577,0.418347063442044,0.22036079860940472
0.35712926835794745,0.17162985068572403,0.4425495979126661,0.717208987097933,0.5721040595456429,0.40963879342917675,0.41714885435707766,0.21908981644124692
0.35643115730583685,0.17083865522882372,0.44459998656004757,0.7169991593405796,0.5685497170655762,0.40821578251553364,0.41620840625771566,0.21768929306291357
0.35554630518148744,0.17003056961664276,0.44679394939559613,0.7168082581702944,0.565209356593125,0.4068683473350348,0.4154151364296471,0.21617958188339195
0.35457059873749575,0.16918036417175283,0.44882226114529167,0.7165955296852174,0.5620033586662603,0.40542066969910084,0.41477678680599933,0.21458025724119978
0.35355572982989864,0.16826394626976052,0.45048958356638025,0.7163754997042706,0.5592031036891199,0.40382501578353336,0.41438084476811504,0.21288338554556901
0.3524776362899813,0.1672717060953443,0.45170301896816756,0.7161219541319485,0.5569273821152388,0.40216290209104927,0.41400320789766953,0.21108815810001957
0.35132004859591,0.166268070137586,0.4526081532460861,0.7157563627649661,0.5546808939710567,0.40038533375077506,0.41353647003737054,0.2092540698945523
0.35016777029816176,0.1653681637822774,0.4535852376620813,0.7152638897943259,0.5523107607748321,0.3984121267221665,0.4129782678401359,0.20746481181980048
0.3491554022039671,0.16464857957416634,0.4548909544266668,0.7148912188284885,0.549985106797799,0.39638072087759174,0.4124133463681238,0.2057669648166255
0.3483380152943669,0.16413560585905726,0.4565498775248363,0.7149477433476283,0.5476641286822796,0.39458310254458584,0.4120431216362965,0.2041247658881585
0.34772129744712793,0.16378064362305295,0.45835784960743653,0.7152409227153262,0.5453364920805168,0.3931378807919768,0.41181268858947284,0.20247720862464616
0.3474241568530474,0.16358385491573826,0.46023978853044545,0.7155261813408836,0.5431919402465266,0.39189073199231944,0.411495558376591,0.20084617435348173
0.3474463646382071,0.16351849822158954,0.46224415070812275,0.7160576542891366,0.5414184800875815,0.3907205914454258,0.41092196989896407,0.19927932138470159
0.34752664135257255,0.1634786357740706,0.4643035074048103,0.7169779058329415,0.5399816396240023,0.3898391928844277,0.41017048119443306,0.19777537333143747
0.34744174954514434,0.16342308244673318,0.4665271418038673,0.7180084004280838,0.5385539379343958,0.38933512889042865,0.40941001156668083,0.19626618900177056
0.34725912237756335,0.1633057720617053,0.4688790244066022,0.7189427738157332,0.5370494388322492,0.38901865372427946,0.4085280242580536,0.19472670914962106
0.3471035305587427,0.1631228156552106,0.47107050135090983,0.719643895955245,0.5355799074149734,0.38876157382716675,0.4074838498036593,0.19322659611803564
0.3468536022711868,0.16291067236545537,0.4730663118209376,0.7200811104747514,0.5342254743041034,0.38855487033915864,0.4065797263267586,0.19179901720386866
0.34640001710034984,0.16265075749545616,0.4749265195677787,0.7204727283049277,0.5332298256725144,0.3885503305910865,0.405997647316356,0.1904288266691165
0.3457654350414641,0.1622985962746669,0.4765281883465936,0.7208404106906618,0.5326919925215029,0.3886656281773133,0.405557031010461,0.189094795594902
0.3449850780189158,0.16183847951710287,0.47772723005606554,0.7209240905928356,0.5324521940799952,0.38866812165448444,0.4050582626767533,0.1878501281790558
0.3440927780781775,0.16128222874100973,0.4784864961569391,0.720655797477901,0.5323439334200074,0.38853596685058117,0.40441074755953954,0.1868124898271152
0.343207922526038,0.1606211866937385,0.4788243646573477,0.7201580610853513,0.5322412517373063,0.3882417129011698,0.40353465737780975,0.18596051368244126
0.34237115785318606,0.15985385945844305,0.4788123093904138,0.7195081922506594,0.5320303445022002,0.38789966338888665,0.40250094455998564,0.185206722626965
0.3415410863248479,0.15900566446655814,0.4786126393863461,0.7188137188095134,0.5318297796372462,0.38802035807516505,0.401638382589056,0.18454757763485774
0.34085862349971197,0.15810099267405522,0.47832730381853034,0.718110679354642,0.5318064501872637,0.38890449707435554,0.4012144907469415,0.18401971782347606
0.34037818730784014,0.15716322962038037,0.4779268710999776,0.7173198934235073,0.5318390154553585,0.39016369475395907,0.40105015238366976,0.18363131954479522
0.3399309993455161,0.1562147765429138,0.4774902750175373,0.7164726814253077,0.5316575768570962,0.3912990480691822,0.4007798913478266,0.18330315179149886
0.3393890133696137,0.15524364175342908,0.47702619455785494,0.7156792886249139,0.5311445762523583,0.39218780960084687,0.4002681665320798,0.18294599658753594
0.338690012664707,0.15428517825514254,0.47662318953487604,0.7149648860245631,0.5303684050094664,0.3928665810952962,0.3995259651022192,0.1825079707983421
0.3377946936752195,0.15339324836883791,0.4765063173512287,0.7142197554443804,0.5293947365337761,0.39331040286622276,0.3986175069058288,0.18199301164818163
0.33673919586197193,0.15251233425658758,0.4763891324383823,0.7134526375395756,0.5281796057105549,0.3935290564832131,0.39780496016666844,0.18147181907972776
0.33561841642742307,0.15159600600070622,0.47591071999713025,0.7127254019891359,0.5266611332413732,0.39355885964686754,0.3973590655074,0.18097859692331755
0.3345231917157437,0.15065337318028624,0.4750671816620528,0.711816381265311,0.5248740250896448,0.39339461842223444,0.3971907745638819,0.1805126058621996
0.33339998094905055,0.14967980299269312,0.47390194266112734,0.7105738897854331,0.523018887229444,0.39308503955431484,0.39710097945735207,0.1801399719591744
0.3322644565950234,0.1486976376444959,0.4724635376571886,0.70897350278393,0.5212676158526507,0.39275039898185843,0.3970796697846271,0.17987036991792751
0.3313255146117014,0.14776168650091107,0.4708387716242791,0.7070390041100489,0.5195037268240754,0.39238542291438117,0.39719743548926456,0.17955917759907034
0.33052871706155357,0.14685747295533536,0.4691710308183958,0.7048803840217757,0.5175690084833126,0.39207201343181275,0.3975016068045615,0.17915501516633014
0.3296547055946691,0.14595774695234928,0.46767774339515106,0.7024626643427475,0.5154593803830395,0.3919620091621494,0.3979169300285544,0.17870911463110659
0.3286943075380077,0.14509661187862471,0.4663728277880797,0.699705835384658,0.5132312818486897,0.3919798175233146,0.3982509672238122,0.1782170343122547
0.3278394108542635,0.144273222085226,0.46494848992684185,0.6967008406280927,0.5108050948528604,0.39222015636761415,0.3984868704282609,0.1777013139479763
0.3272333471810365,0.1434666743689164,0.4632107159465264,0.6935081672559904,0.5082385715995716,0.39286033002262394,0.3990365196376963,0.1771701646969845
0.32675222704587115,0.14271044527602955,0.4613486391461856,0.6899652186056486,0.5057274951171288,0.3937085102828822,0.4002869072016838,0.17663145578682868
0.32627073817814467,0.1420298220517069,0.45962352524322597,0.6862377278349245,0.5032785661309938,0.3946144340450965,0.40200579581384693,0.17613952345474315
0.3258027333566894,0.14139543242458358,0.45813806308739563,0.6829323630393052,0.5008580184534237,0.39568169264369385,0.40367640605707583,0.1756593801211746
0.3253146486724987,0.1407657639903428,0.4568966443220696,0.6802612937356044,0.49833323653853745,0.39680864133172417,0.40500504108181484,0.17512411748589451
0.32469416671674095,0.14015459139628716,0.4559099200917702,0.6781126171168431,0.49559752631845516,0.3978110774383852,0.4059384196199905,0.17451658973059642
0.32387409452822385,0.13965530428737533,0.4552279485149841,0.6764790782359874,0.49278304229011716,0.3986667002180101,0.4065529905352225,0.17385389566928772
0.32288395515447627,0.13927020851576322,0.4546576237999491,0.6750189423794666,0.4901299332734431,0.3993342619098151,0.4070091056968851,0.17319924600294584
0.321859128135258,0.13891448208141577,0.45389377686012766,0.6734319017749928,0.4876738636360694,0.3998212904690477,0.40742687187984045,0.17263984057810813
0.3209893169892679,0.13856044831550823,0.4528118358225087,0.6717517472393695,0.48518800546273594,0.40024882222738084,0.4078409820338427,0.1722188821794651
0.32024856718130246,0.1381883175954709,0.45154701560675387,0.6701245522807563,0.4827094829618812,0.40069257543800035,0.40838491432243473,0.1718705872294314
0.3196386712809284,0.13779923561686344,0.45031574915129724,0.6687835948186256,0.48037408929038217,0.4011647886691063,0.40903913011273024,0.17159213429823023
0.3192949367110284,0.13744780228604636,0.4490709653632658,0.6674904081916805,0.47805751209450453,0.4015969097196474,0.40972465979000594,0.171487732403355
0.319139269391072,0.13716615058838497,0.44768742028680913,0.6658964953286978,0.4758146578200319,0.40190334625920476,0.410533084090724,0.1714964310868767
0.31906335758449983,0.13693814807910912,0.4461390499311362,0.6641301247279069,0.47367791784326685,0.402089264229618,0.41133124885553835,0.17144615816182757
0.3190504367896383,0.13672156775873934,0.44448131352870035,0.6624813061607492,0.4714174212721505,0.4021664073870211,0.4119182507246589,0.17126597935721402
0.3191445838019229,0.136469320676406,0.44284759729328793,0.6611805314722216,0.46896718298289836,0.40215280011636895,0.4123227572107726,0.17098177171853596
0.31933436900101275,0.13615645649033886,0.4413119801411323,0.6602072458157683,0.4664581611763346,0.4023198374003672,0.4126726555416836,0.1707053056071185
0.3195686513984092,0.13582602717228584,0.439918483266134,0.6592606613390439,0.4640691674762396,0.4029938055342169,0.4129231793035215,0.1704899991481988
0.3198185273081821,0.1355660324506121,0.43873582147147056,0.6582870439407021,0.46199787094772815,0.4039380739610525,0.4128778264606522,0.17027322884547816
0.3199560447256126,0.13536029059673796,0.43772923060761304,0.6573286240624766,0.46026589511510646,0.40471208372771167,0.4126230440033924,0.17004189568183306
0.31985223449050043,0.13511972520723928,0.4367917417663167,0.6561717160366218,0.45864621592797056,0.40518208135552014,0.4125693361977132,0.1697634260723438
0.3195176840375397,0.13483939588133487,0.4359078852051065,0.654946409523782,0.4569616822761139,0.4053675102957513,0.4129019096001715,0.16943345128414478
0.31908977660414883,0.13454804507016602,0.4350561257069513,0.6540245873039614,0.4552434826224757,0.40529392974582623,0.4133763343303018,0.16914144551643126
0.31859972607537373,0.13430660659488464,0.4342826924499601,0.6534273807968106,0.4535415404588722,0.4049860382515518,0.41372523581246406,0.1689261564129735
0.3179771605785947,0.1342067479003479,0.4337921929426125,0.6529874830163567,0.4518099907321115,0.40450780298787503,0.41398047579998704,0.16877777204334085
0.31731535717827697,0.13422904094871277,0.4335995492869163,0.6527385983217936,0.4500584777329624,0.40403423702799934,0.41427291118791054,0.16861998273382486
0.31667014757156636,0.13430798236450514,0.43352485489416487,0.652806385351861,0.4483363616449095,0.4036658839710406,0.41448698205271073,0.16838648998259734
0.31603474760776346,0.1344076044343204,0.43331567593234194,0.6529095791078054,0.4466239697170452,0.40329155200611033,0.41447211021136066,0.16810755282184367
0.3154762039754258,0.13450016845763557,0.4329312568763123,0.6526788138385374,0.44486904494510876,0.40283163089845714,0.41435860620458115,0.1678455889818604
0.31489811266116235,0.13457251987825428,0.43249324536883227,0.6521756266436464,0.4429480967892745,0.4021966807040106,0.4143915601537521,0.16760679972804757
0.3141949059793236,0.13459872339431797,0.4318840460383644,0.6514792013150382,0.44085013670586576,0.4013949205472867,0.41449771617817804,0.16731017706414203
0.3134395594264292,0.13457407317212752,0.43111168622140605,0.6504381447263048,0.43881889082414244,0.40058815036957585,0.41467379069792815,0.1669384627253429
0.31266181186506486,0.13450080292639993,0.43039795246959894,0.6493225046161892,0.4370473136986741,0.3998375403604063,0.41509709608544926,0.16652870855696747
0.31173635449759535,0.13434098051748394,0.42976104403652415,0.6485979300256655,0.43546565783736624,0.39911463085481924,0.41550909961847093,0.16610302108409558
0.3108175907103654,0.1341052074366652,0.4290444603254011,0.6481010352243577,0.4338465604613631,0.3983186267016,0.4157026300924231,0.16578285085826433
0.31015349693616384,0.13383044161550187,0.4281453802804207,0.6475883974108495,0.43203943483111856,0.3973197537337254,0.4158608295096767,0.16570432662882026
0.3095664984390666,0.1335119568498564,0.42710603229644584,0.6471414270874113,0.4300943123526378,0.3961211062780046,0.4160385681297764,0.16581022148029384
0.3088732908894563,0.13315196048104344,0.42608729227190517,0.6468111897408396,0.42808592729469375,0.39481944042073,0.41620808143892574,0.16591189824081246
0.3080925308982262,0.13273923209595398,0.42520290940960426,0.6465060140043342,0.42593205038015153,0.3934338615465085,0.41642305085777287,0.16588909487606826
0.3072555207631371,0.13228314765121257,0.4244345269481746,0.6460913863372653,0.423627711672642,0.39188243649066373,0.4165208305921748,0.16577398666642584
0.3063989427592423,0.13181277537878366,0.423644126678014,0.6454120005152142,0.4213220794175523,0.3901136965331141,0.41637938574612066,0.16563086955802078
0.3055378461138781,0.13132250433540177,0.4227866268141573,0.6446337948032065,0.41919795653045056,0.3882056525275528,0.4162833728162798,0.16544772697676524
0.30457965516643126,0.1308604742529199,0.4221198373771668,0.6441295423362785,0.41738322506954345,0.3862531176143837,0.4164181169090194,0.16521978914088728
0.30349608457980115,0.13045933371429538,0.4217364038478708,0.6439546844786239,0.4158929358449478,0.38427996811519427,0.4166063112320721,0.1649425367927549
0.30247414977232445,0.13006333632624983,0.4213636305892395,0.6439947864534782,0.4146408830734555,0.38238929412622363,0.4168521372994724,0.16458495085849317
0.30163250606710523,0.12963252517171064,0.4209011249217257,0.6439262283361146,0.413470831660571,0.38069968406473187,0.41722639881370516,0.1641508675668122
0.3007769245129218,0.129148771187224,0.4204200923470786,0.6434462443924743,0.41240709155529326,0.3790903704218922,0.4175092025841962,0.1636707741079235
0.2999222087151385,0.1286549578320106,0.41986831474966785,0.6425664911160833,0.4114393838781044,0.3774390703255944,0.41752372923733455,0.16313376150585
0.29935664225296404,0.12823223044436474,0.41922265533757297,0.6414656532575207,0.41045080845229964,0.3758494918897992,0.4174354000310923,0.1625160778921149
0.29906151982352275,0.12785785014337075,0.418641594157602,0.6403482937988244,0.4096103753736343,0.3743405454170547,0.4174961502825414,0.1619154286244441
0.2988181092668265,0.12748327570367085,0.4182833478850557,0.6391627218141006,0.40917321051651406,0.37274972083075647,0.4176258974004572,0.1614520005159369
0.2984438776104551,0.1271289350519764,0.4180850920339985,0.6377325254011417,0.4089617484819501,0.3710419963674618,0.417627625101925,0.1610868480790569
0.297878011613773,0.1267809190872515,0.41785285869623673,0.6360095422143146,0.40868557513408993,0.36927090244406546,0.41768072977990056,0.16077593742093724
0.29718955889548365,0.12641923108662775,0.4175214890734452,0.6341084484328856,0.40846143043690714,0.36740747297178095,0.41797682018089644,0.16052389751184146
0.2966586354009309,0.1260983020063666,0.4171424128593382,0.6322059683268413,0.40839424508024924,0.36549763526122114,0.418217555154109,0.16025486787831325
0.29651291645703926,0.12586347212920446,0.4166645815477194,0.6302839410014749,0.40831011419779273,0.3635920515492699,0.4181443556170074,0.1599832184705494
0.2967491750808786,0.1257714002008867,0.41599245867552304,0.6284119310432715,0.4082165413569325,0.36161214524253915,0.4178244223118679,0.15980961470665078
0.29733721193078316,0.12583602923781464,0.41524879755186883,0.6267299772245597,0.4082878620168419,0.35948951210537,0.417395819385076,0.15966310394530953
0.29803384986537884,0.12593014002233197,0.4147650366766202,0.6256860891052098,0.4084232382986352,0.35724577569622806,0.4168636830076429,0.15942898905057115
0.2986531761594084,0.12597881503252675,0.4146239521387953,0.6260625469546905,0.4084793508462814,0.3549485384897238,0.4161995963356873,0.1591514187238583
0.29929155593054063,0.12599066770163414,0.41451660671036755,0.6274963963765599,0.4084328461805883,0.35260902922390946,0.4157910339634617,0.15889940889636955
0.2999408589156282,0.12599403056680386,0.41430123281180403,0.6289775253335977,0.408274856657372,0.350191227809126,0.4159147822134705,0.15865203423975666
0.30044620662601546,0.12603607099608466,0.41417662556320817,0.6302617549463072,0.4080972969313532,0.3478345898502246,0.4162801511862821,0.15837590238025764
0.30079999503942656,0.12606826593837236,0.4141456468341701,0.6313363440321031,0.4081686270399777,0.3458529724366774,0.416655651706392,0.1580591576795861
0.3011823036133257,0.126030838572868,0.4139702493863711,0.6323029687083683,0.408625053272597,0.3443122231292671,0.4170471669263545,0.15771724272759452
0.30184559012936324,0.12602713987500783,0.4137638537277346,0.6333592801671601,0.4091418462264016,0.3430342080166309,0.41754722628125596,0.15741175501524127
0.30283717754568545,0.1262094846370891,0.41386230389562245,0.6344869892410376,0.40940164381019434,0.3419552558454989,0.4181172002959298,0.15723500983554023
0.3038944614944236,0.12653618228137567,0.41426562927211724,0.6356484747502603,0.40940199137162875,0.34102764200690106,0.41860640947157207,0.15727518650556827
0.3048798472227213,0.12690035504441752,0.4147462411839761,0.6365670234350351,0.4092143369065613,0.3402122556745539,0.41897777552603915,0.15749607579466063
0.30580219379,0.12730002280976416,0.41515991200533836,0.6371119005994016,0.40891389100173403,0.33945820537810617,0.4192226890496051,0.15771577653450256
0.3066834080421066,0.1277800589204003,0.4155158373312479,0.6376598601135162,0.4087599114772971,0.33868332221665176,0.41941995425157186,0.1578605827724344
0.3075377985903891,0.12838999505243728,0.41585629867031176,0.638303842367871,0.408906644999728,0.3380497225096407,0.41990574901309496,0.1580539565215832
0.30824535906022915,0.12910353951167,0.4162685567407281,0.6386111517781525,0.40914030339938423,0.3376855973805621,0.42102810742027563,0.1583270302971781
0.30871149773035156,0.12990212907117737,0.41704996144817064,0.6384824610002916,0.4093766522086665,0.33739906723265267,0.4226646798339471,0.15853567195673793
0.3089328839691477,0.13076123913386944,0.4182171464113021,0.6381574777290218,0.4096086603784236,0.3370733754794225,0.42431683765336775,0.15862899241977085
0.30901354344118803,0.1315704350189129,0.41939786462624534,0.637705219452352,0.4097360032356326,0.33680414173289663,0.42564132487975365,0.15866540065970455
0.30910660473398616,0.13227761695280196,0.4204499830424869,0.6371650834713242,0.4097430483461353,0.33658917246367626,0.42658424262303485,0.15864733472268377
0.30914457952381785,0.13291327916434162,0.4213245867481188,0.6364478067366844,0.40955478515638416,0.33637951539718103,0.42729498124608095,0.15858386525181847
0.30897604806000684,0.1334932878547044,0.421948314056016,0.6353545150407558,0.40919994066558757,0.3362085718658561,0.4279300352182432,0.15850377041006702
0.3086435768222136,0.1339927577433465,0.4223247790090098,0.6338491164815496,0.4087395840975254,0.3361082543275909,0.42851882422868187,0.15839447809309434
0.30824152841393976,0.1343879627276,0.42241756158807486,0.6320579483408054,0.4080918276601697,0.3362159955236095,0.42917645156478046,0.15827742049302218
0.3077666286011542,0.1346629943692471,0.4222589578729953,0.6302425386758191,0.40733898592596696,0.3366697409601873,0.4301867868969871,0.1581664199804388
0.30718238599865755,0.13480943752614716,0.421886789126237,0.628639701991383,0.40663344332741863,0.33756099176916815,0.43178090772158667,0.15802120477563417
0.3064272567495974,0.1348527966620006,0.4212371499084879,0.6270545413677836,0.40596713962020275,0.33881638749661075,0.4337112693586473,0.15784340191935645
0.30551608194262153,0.1348309393396178,0.4202892954807847,0.6253006123237891,0.40529221122106657,0.34029185860991285,0.43548000767922423,0.15765465707087772
0.3046102993704459,0.13474003477420993,0.419103901951748,0.6234671736707942,0.40464980025258784,0.3419897888769853,0.4368985459642438,0.15745562795005924
0.3038910699435638,0.13458985722180863,0.41778603967725464,0.6214524754058091,0.4040725436043071,0.34399916110971374,0.43800747692811054,0.15728706934835335
0.30335098111826747,0.1344098712719354,0.4163627954363353,0.619139306339044,0.40358491103005145,0.34653850965967686,0.438906101768519,0.15717456367817945
0.30282230662444815,0.1342015460529042,0.41479332111430495,0.6166699032601111,0.4031767926210603,0.3493416577763706,0.43969629540948263,0.15704892416080973
0.3022448872514132,0.13396631420987007,0.41321251968894446,0.6142941339251142,0.4027247798217224,0.3518863029248201,0.440375321036593,0.15683729734630053
0.30158128300909587,0.1336922001988356,0.41182298818178203,0.6124314381206256,0.40232481986841,0.35403413100991576,0.4411211888548703,0.15652356637620435
0.30074227648458246,0.13340121619789416,0.41073141742985464,0.6112485245873388,0.4020886980920869,0.3559875193674092,0.4422177700888735,0.15615927288798465
0.29978310170247063,0.13312780601199595,0.4098991691795309,0.6101018867331865,0.4018423737948213,0.35817424687230476,0.4434615586276846,0.15586062706536802
0.2988436258383866,0.13284472609125975,0.409141942903111,0.6086567574489652,0.4015464124261869,0.3607157814001438,0.4445307167397604,0.15563843633393853
0.2979238998537808,0.13250586826339836,0.408343548254621,0.6072417430997475,0.40123000057921165,0.3633201265327937,0.4453916852926059,0.15537593152703263
0.2969036062536498,0.13210729762265483,0.4074597433802334,0.6058435291989572,0.4008675886153682,0.3657212862115841,0.4459991925956902,0.15502831629878341
0.2958081582276334,0.13169210958773492,0.40646834933499043,0.6042621569228358,0.40076239335276365,0.367959201733584,0.4463168649545208,0.1545929388813718
0.29475554051641284,0.13128148498948722,0.40544185821784967,0.6028480960364158,0.40131786781551965,0.370199269424507,0.4465776273245812,0.15406734747185297
0.2936713626116186,0.13085556408714702,0.40438947218434534,0.6019765403736451,0.4025315092677589,0.37241917525413876,0.4470645111294079,0.15355625917579568
0.2926115303409834,0.13042879470959876,0.4031528696444315,0.6013172021927492,0.40417965182828774,0.3744973050307977,0.44770036036608657,0.1531263967057991
0.2917565296951018,0.1300149976553498,0.40162758861059167,0.6005338840980314,0.4059944421965428,0.3763910118397839,0.4482507652318273,0.15267435597870485
0.29094450794786647,0.12958726487299696,0.39986776227523096,0.5998132508062867,0.40773287801210156,0.37833380421306717,0.44889274225184106,0.1521413636092038
0.28996043081690503,0.12914661490675908,0.39803905906022063,0.5994207121576988,0.40945008664740395,0.38063591327521795,0.44994261804807184,0.15155819584476074
0.28878598144373324,0.12868066260109512,0.3962532128641178,0.5991551826202827,0.4111720765188686,0.3832059564089599,0.4512613060766464,0.15090753827240297
0.28742388060788227,0.12817089948743912,0.3944499118116994,0.5988241924807868,0.4128969773801989,0.3858091724851559,0.45288265331609817,0.15026649741502085
0.28585685415688766,0.1276932670617907,0.39283223402330336,0.5988320632148658,0.4147299727150695,0.3885886976818487,0.4549925206268878,0.14978236524077213
0.2841554938559324,0.12730031779936915,0.39166779887895237,0.5994381856960287,0.4164038432833764,0.3919286580931797,0.4573871210185813,0.14944879047388906
0.2825612883101443,0.12695532127795597,0.39063716637100426,0.6004153983058973,0.41787040041405693,0.3957279292508984,0.45985119058006696,0.14925286653398276
0.2812783846500491,0.1266498407657102,0.3893611035066221,0.6015193089544437,0.4195918822014352,0.3994346928672867,0.46213195123132406,0.14922891649912023
0.2802142619520904,0.12638245396409822,0.38792505323964077,0.6025026517062003,0.4217694991089724,0.4027552083538448,0.4640813900294338,0.14934274632130323
0.2791799193806623,0.12612501978882487,0.38650450330291114,0.6030755346616313,0.4241874341609465,0.4056829970259742,0.4658524279822905,0.1495147132034694
0.27813494566784075,0.12583723854674203,0.38503329201794617,0.6031215227295859,0.42654541362408316,0.40823898470815156,0.4676316286725035,0.1497086949289564
0.27722121669643457,0.1255407647066643,0.38343480985157113,0.6026768403344831,0.4286766176155001,0.4105037204028932,0.46955063875566916,0.14992354753663215
0.27662111791558397,0.12527637796838786,0.38187659366039894,0.60189695860607,0.43055541365125644,0.41283534400850175,0.47164164567265465,0.15015815662820442
0.27644863259610963,0.12499613751394974,0.3806191502031488,0.601312015470214,0.432217700412006,0.41587054938637,0.47392190015622604,0.15059864387546607
0.2767655762024151,0.12472106070428093,0.37977097015863515,0.6014690385316785,0.43363116603816537,0.4197095502451652,0.4762606295880872,0.15141615807026373
0.2773631672478904,0.12455147802764611,0.37926828562830356,0.6021283684931362,0.43485206044958674,0.4237988918089064,0.47832542321482313,0.15249992239177834
0.27804142617454985,0.12450302668056294,0.37894947696597897,0.6027527219332838,0.4359611188832097,0.4278362511643426,0.48005933231144293,0.1536969152460275
0.2788229364537151,0.12450362997602508,0.3787801175753022,0.6033296441214456,0.4368083536489753,0.43184004731670966,0.48154860742011574,0.1549275150214427
0.2797225145253343,0.12446423819329061,0.3787806202626449,0.6039141268970477,0.4373174072858977,0.43588141888528364,0.48268878041399904,0.15612221367777118
0.2806673015705446,0.12435319763094406,0.37874971029108173,0.6043715583410312,0.43756265803100686,0.4398745998444896,0.48340031786521714,0.15726136007789662
0.28148058603418663,0.12423390267141193,0.3787088404433198,0.6048073073284627,0.43761550660146437,0.4435838208245304,0.4837747052501542,0.15836632640790235
0.2821472394982911,0.12415362887113472,0.37877883017079944,0.6053355566318064,0.43774501527813964,0.44692423730789615,0.4840134391400791,0.15947096100420632
0.28284013924924506,0.12413081587566,0.3789079926743267,0.6059317186739782,0.43843580231487117,0.4499420809938397,0.4841756716879738,0.16067450114068613
0.2836176493567209,0.12418304653659262,0.37921397899905585,0.6068262750556879,0.43973635520246174,0.45270194380782486,0.4842913145523107,0.16204503230057554
0.2843616811088314,0.12426020762813911,0.3798359006127264,0.6079987090647337,0.44131805222149123,0.4551990002703306,0.4844157683368017,0.16352717282853763
0.28498605363274904,0.12438119913376591,0.3808329731991774,0.6092352346264756,0.44311366122092416,0.4574088304597645,0.48445492664103357,0.16498760855090258
0.2854619343160435,0.12459080121425543,0.3823216505493112,0.610979831698839,0.44493163206470776,0.4593818984487806,0.4843656566091303,0.16629215363831734
0.2858153744981744,0.12480472937262792,0.38423901637962105,0.6133424561476396,0.446461683963779,0.46111990222675114,0.4840466501826136,0.167399521390582
0.2863923374306129,0.1250092171711662,0.3861500612134793,0.615752407526385,0.44767473592458307,0.4625310895761426,0.4833410499872939,0.16841081467487545
0.28738981719400725,0.12526465102058268,0.38771891703905287,0.6179846660396245,0.44869036774103066,0.4635748126928907,0.4824134281702029,0.16944289341567845
0.28844090705431613,0.1255217687087118,0.38898568331895905,0.6203322944910655,0.4496030954429442,0.4643663218856576,0.4815952543333913,0.1704938579472954
0.2894620311038905,0.12576019096895621,0.3901227276716757,0.6230086493286519,0.45053017090491565,0.46517656550433856,0.48091599193538426,0.17153512910691213
0.29077443151553184,0.12604067364170188,0.3912616227202125,0.6255154727639419,0.4516305384933124,0.4661309803098964,0.4801763675100647,0.17255943689782552
0.29234412558812944,0.1263611181479324,0.3924011885096297,0.6275501579396484,0.4527819440142684,0.4669749994226361,0.47923262723822213,0.17355984362771112
0.29387092081741645,0.12667936279969016,0.39346675021833993,0.6292716629270376,0.453720305726659,0.46747191103767877,0.47808786641098533,0.174523050211651
0.29522148832312867,0.12700856785794648,0.3944805529222057,0.6307521089697606,0.4543202567198864,0.46766974920499466,0.4767719836986107,0.17541631354599624
0.2964422981523434,0.12736131110554158,0.3953903794822997,0.6320941456851289,0.4545624940945054,0.4676281212359616,0.4752000824718668,0.17619500903945715
0.2975511823909178,0.127736229108206,0.3960661508571697,0.6331687730999266,0.4544757008128029,0.4672638702795851,0.473465037374213,0.17682324788350415
0.29849176076924,0.1281520541356345,0.3966109891685417,0.6338261114555421,0.4541277467639526,0.46656462418924616,0.4718029355547443,0.17734707757131463
0.2995846790176163,0.1286734666078421,0.39707685995836606,0.6340769740279331,0.45365735009092056,0.46557235951591874,0.4702255837283156,0.17793099251629338
0.3012167331570856,0.12936223423364723,0.3974065715089769,0.6338986668435487,0.45317057515014025,0.4644278008669181,0.46876425157508544,0.17867879316776286
0.3031556541013281,0.13013687391656723,0.39761240843899914,0.6333300700488155,0.45265523172277033,0.46357994435042776,0.46763594461634095,0.17959600760991998
0.30513885433938565,0.13089261679534714,0.3976527534825801,0.6325224122221197,0.4520127695092306,0.4631236902002859,0.466833966064024,0.18068776013854082
0.307048833782185,0.1315827527550762,0.3977085941658735,0.6316606966268671,0.4512225890643104,0.4626613619153938,0.46620450410742137,0.18183843668635224
0.30873983938181554,0.1321693508241466,0.39811350090197506,0.6308350217502449,0.45038547590608935,0.46203320690429955,0.46575404142318944,0.18295744832344216
0.310206382470138,0.132703145734634,0.3990458063221577,0.630291998834899,0.44950427773708207,0.46121360805972006,0.4653415151711263,0.18407852052680015
0.3115771486834822,0.1333597515805182,0.4006889561156915,0.6306015471303485,0.4484480419874887,0.4601849322806247,0.4648252700040966,0.18520716738225318
0.3129485801034195,0.13422011494289598,0.40304390301397597,0.631860037260029,0.4472253948752584,0.4591177213022224,0.4644309480533728,0.18636871390332216
0.3142658361598247,0.1351675753769672,0.4058300610774322,0.6335904296892784,0.4460118972677975,0.45816177103789507,0.4642071193100695,0.1875271792217159
0.3155366853422888,0.136130573710163,0.4087385055681013,0.6354228770800923,0.44488186861137513,0.4572061941487289,0.4639526981883812,0.1886080333152305
0.31676191739913745,0.1371008190549201,0.4116407672752503,0.6370503074514886,0.44381940071453146,0.4561449216914108,0.4636358299772345,0.18963366324913064
0.31790890202883704,0.1380570019103501,0.4145878005645761,0.6383129100555744,0.4428025255175733,0.4550170011683106,0.4632795921760251,0.1905720489113744
0.31906684964029963,0.1389988102469995,0.41745446748050374,0.639245377866003,0.441883731090667,0.45377293016147496,0.4629328412462764,0.19137927398675494
0.3203946287975833,0.13994601733518305,0.4201144597373973,0.6398945868597109,0.44156108880240447,0.45264627965600535,0.46272253281808506,0.1921404903575964
0.32186351949760067,0.1409108460052892,0.42260093441986996,0.6406600049940108,0.44223021867427187,0.45193390263430877,0.4627432299535078,0.1928903922579335
0.3232319630361815,0.1418581692369079,0.4249858909725563,0.6421308932034202,0.4434662765459946,0.45142459137822166,0.46289127066025226,0.19358194571160414
0.32448294547030754,0.14286137866749332,0.4276993395420352,0.6443420338448743,0.444808845456588,0.4510565254705069,0.46316097813103224,0.19421033272270116
0.32571396684203713,0.14397725074091205,0.43093164998998756,0.6468178505804499,0.4463255461588637,0.4510044430136763,0.46367383791899025,0.1947375758801516
0.32679098703026654,0.14504603530428958,0.4340955337491019,0.6491098642976716,0.4479605455685816,0.45113431563635203,0.46424495357720386,0.1951341317336255
0.3278400057405781,0.14598851531465243,0.4367964385692536,0.6512372215152482,0.44948648788445045,0.4512642760482406,0.4647508949693936,0.19543204044008522
0.32916878094428575,0.14695636059038597,0.4393861739689514,0.6532718833130818,0.4509534408058886,0.45148779832388836,0.46550824572022365,0.19580913603778144
0.3307170709260221,0.14806788163205942,0.4421879965371542,0.6550755085201295,0.4524160391788137,0.4519343198950799,0.4666858700913606,0.1964153902391456
0.3323200646600595,0.14924890217501524,0.44490917469025143,0.6566965115770282,0.45387974614462956,0.4524666858154501,0.4681239625781706,0.19705973859210427
0.3338066884806465,0.1503882865601446,0.44729651955664246,0.6581546355042759,0.45528292682497584,0.45282658538235643,0.4697362703118266,0.19756606877989275
0.3351471343852155,0.15147337223057433,0.4495093244656666,0.6595825838331553,0.4565065096136665,0.452974364210363,0.47131308733361255,0.19791983187261886
0.3365202954213437,0.15253221504441283,0.45163326940995746,0.6611073224199804,0.4578646717743312,0.45321327959826363,0.47274745835683873,0.19810057252304517
0.3378632506230197,0.15353818935796726,0.4534963305757926,0.6626228837659965,0.45979152673689916,0.4537330330988684,0.474144478079367,0.1981423789734086
0.33894869364626884,0.15445250571300426,0.4550545587131973,0.6640479720528295,0.46214683972701615,0.45471481140166287,0.4756648838174736,0.19809805011080464
0.3398402547307948,0.15532506619232986,0.45654033286180074,0.6651310768176854,0.4644417008394795,0.4563047376166953,0.4773954491718478,0.19801148758081516
0.34073270524356014,0.15623038844691023,0.4580890862683337,0.6656720632059421,0.4664759429243101,0.4579800882925235,0.47921170940732466,0.1978912962280968
0.34162514492925533,0.1571862326020028,0.45972333067977267,0.6656739095388672,0.4684728781279761,0.45926751696181917,0.48104801346875264,0.19774573942887586
0.34255682838967894,0.15816942249257568,0.4614444591667897,0.6652536464366227,0.47053917502316506,0.4601692664502595,0.4826877669581028,0.19762954763116272
0.34371904342392723,0.15913770484152445,0.46305982771109383,0.6647242049429569,0.472482617811901,0.4608416314125372,0.4842515893837088,0.19748138332841578
0.3452276830616448,0.16011753647755214,0.4644788693576765,0.6644986838941858,0.4741729499290645,0.4615145674181344,0.4862026014956632,0.19721586156745377
0.34692583143084293,0.16116095717933493,0.46578229125313897,0.6649652510000179,0.4755192494138952,0.4622743173787139,0.4883950607472394,0.19685839647869835
0.34852280365079497,0.16225751028960275,0.46699391729854545,0.6659329173134748,0.4764883652144865,0.4630562016015488,0.4907762423290431,0.1964534444157496
0.34986099179070906,0.16333696867571218,0.4681031949481207,0.6668173525370343,0.4771826701314469,0.46377827190390974,0.4935161669454657,0.1961238071179069
0.3509369778117237,0.16432548756773419,0.46900652568374995,0.6676079478137955,0.47766023780734984,0.46436219901632914,0.4961954424720526,0.19597350519247148
0.3519349520658532,0.16519263473909834,0.469698615184668,0.6683815633091398,0.47807043082177725,0.46477330666471717,0.4985867953847719,0.19590797308652264
0.35300443216839505,0.16591610356671377,0.4701879750500495,0.6689175535387585,0.4786832191804252,0.46525940239861985,0.5008876357592688,0.19579655715367686
0.354034302956949,0.1665348690908962,0.4704561989022105,0.6692591571294241,0.47954269485957485,0.4660373947039004,0.5029927003567864,0.19561461508475356
0.35499854761556066,0.1671732311282441,0.4708001335744914,0.669595012375242,0.48051027483754266,0.46684646742343483,0.5047011999887713,0.19540550306466475
0.3560394921349094,0.16785646560510445,0.4713899917137868,0.6700721358225218,0.4813998064003033,0.4675173399549761,0.5060888920505681,0.19527089299608413
0.35725308776769166,0.1685351612319215,0.47191364898344224,0.6706638699799217,0.48196644215570644,0.4682425770020318,0.5072552953354625,0.19531465252185723
0.3586039162655406,0.16921554596725155,0.47209266659809607,0.6711039107941222,0.4822169809635966,0.46908597545398256,0.5080551232068452,0.19550893024572644
0.35991087504618463,0.16985008786158357,0.4720822535370409,0.671278078294179,0.4823588100261469,0.46983432162470823,0.5085302773182705,0.19582693977500296
0.361134493016063,0.17046691028311248,0.47233192478770797,0.6713782789711416,0.4824433182213207,0.470277073123773,0.5090621355446706,0.19627636907070467
0.3623173262601989,0.17111967538544717,0.472896996541899,0.6715079197260146,0.48255983231988653,0.47042039656961715,0.5097480095706722,0.19681095749276994
0.36333297205404697,0.17171927362488254,0.47340217558875536,0.6714382736004455,0.48272690683845965,0.4704844302134322,0.5105671723599651,0.1974532320442223
0.36416097139173864,0.1722340067932437,0.4736356263943676,0.6710309771172808,0.48283520804096647,0.4706263348234397,0.5116601318147145,0.19813103346523908
0.36492902649245124,0.17268712373491465,0.47352201448334696,0.6704949892086552,0.48317468146997183,0.47074898605586674,0.5130072486016927,0.19868170061518095
0.36592649683237366,0.17308086460907807,0.4730364158855603,0.6698631636094914,0.484002391656279,0.4708464162256337,0.5144892021560284,0.19913697046463918
0.367376458269758,0.1734174295496392,0.4722088364975541,0.6689129526198484,0.4849553388626604,0.47101323064281425,0.5159248674281719,0.1996610119950493
0.36899040919404685,0.17370566423463335,0.47122208537589366,0.6680468948067361,0.4858132102062964,0.47111921994567835,0.5171343491315561,0.20029044643820454
0.3705457145257708,0.17400756423438687,0.47046513157043535,0.6680711697575853,0.48667959842676084,0.47116023909001564,0.5180193334287798,0.20095991253949672
0.37199661955969393,0.17435567401009813,0.47008249667060437,0.6687598567318195,0.48738614811572895,0.47150679931665457,0.5189541089120467,0.2016670243434337
0.373159053676636,0.1746941617438579,0.46975741562601203,0.6692008719951621,0.48777197428586494,0.47232580911360866,0.5204905435674088,0.20237603346412872
0.37397757096466133,0.174942887336185,0.46919351922033903,0.6690167673370987,0.4879308733613424,0.47352240136222135,0.5223469419121178,0.20298588363592904
0.3744863844209582,0.17507208162032037,0.46843515966789584,0.6682215140041643,0.4879862145729391,0.4750723265297159,0.5239393011641129,0.20346017944589523
0.3748121226289593,0.17510018616691134,0.4675516933571608,0.6670497026157183,0.48793575878213424,0.4769921634833367,0.5253444177118103,0.2038511553648971
0.37516969146491247,0.1750315668311475,0.4665026082192332,0.6659734731914152,0.4876771769832168,0.47930409946162683,0.5269635431789126,0.20422222829406933
0.37562422201830464,0.1749440386205339,0.46559698220072826,0.6653507526451672,0.4872331351198396,0.48191531776026036,0.5287390126832423,0.20455384703450455
0.3760975163735345,0.17491873919789422,0.4651236374022588,0.665155748391275,0.4869196751893106,0.4846097130809017,0.530321334323828,0.20480729023858676
0.3764077814273454,0.17487944325827248,0.4647700634731153,0.6649287887427788,0.48694537573911384,0.4872139207355841,0.5317842335075809,0.20501914021519424
0.3765417444302499,0.17475993743511195,0.4644845952857107,0.6645177045333712,0.4870748368026788,0.4899499822391434,0.5336797357994745,0.20527791732932307
0.37664734252551474,0.1746306822717549,0.4643915819449745,0.6641715883643249,0.48724993670999833,0.49329091491369126,0.536094187138695,0.20558133246731197
0.37662541708734537,0.17457914363017962,0.4644225762819747,0.6637141163087719,0.4879097960904889,0.49712697637488046,0.5384210268982454,0.2057867478597568
0.376334439996087,0.17462873780992477,0.46482622571340365,0.6628764450242793,0.4891129434772785,0.500857954616944,0.5403275182327021,0.20581130649596308
0.37582649989209704,0.17474827825379588,0.4655592025045769,0.6616424755189843,0.4903197895398247,0.5041839462122835,0.5421510131424166,0.20573638953143247
0.3751716891613077,0.17486775040419192,0.46624544613306634,0.6600707365002626,0.4911479090281465,0.5071728269921124,0.5442677713109957,0.2056800533580623
0.37442382411818365,0.17494692616128846,0.46673923393468136,0.6584314898606,0.4915929026478037,0.5099901379247229,0.5464490544678036,0.20571509040755587
0.37371470370575904,0.17495405044832196,0.46695484925344644,0.6573443596023802,0.4918983124684609,0.5126406148709463,0.5484024566761349,0.2061183061836319
0.37309681646850146,0.17484544580022449,0.466897486325784,0.6574148820220491,0.4922437442429128,0.5149350562858812,0.5501226230107161,0.20705383247525322
0.37242638924169935,0.17463961813018622,0.46665929461266153,0.6583319294938011,0.49254020786796665,0.5168532892572324,0.5515511687928343,0.20821682375943007
0.3716796086582664,0.1743476770609269,0.4662216184105979,0.6592020276697625,0.492655826019751,0.5185970172053371,0.5527863050136311,0.20934889214662106
0.37108115021015503,0.17394690279807565,0.4655266895890744,0.659879285778258,0.4925515442766908,0.5202456855144525,0.5539422193626726,0.2103767429968495
0.37064520399855466,0.17344909770822423,0.4646732757144624,0.6605252070354816,0.49221696149468636,0.5217817755805054,0.5548875194867953,0.21127716908012012
0.37016455009305005,0.1728589589934316,0.46380949291818446,0.6608396616934971,0.4917827559031221,0.5233424157259916,0.5556037014623526,0.2120815823209732
0.3696482813204731,0.17221449864557248,0.4629566835850667,0.6606829735408244,0.49146094051932354,0.5251456688830134,0.5565479894214316,0.2128134363373232
0.36919873310874163,0.1715989309181914,0.4621753677690468,0.6603298342417742,0.49121351219956055,0.5271658791479005,0.5583714685271912,0.21344174795722004
0.3688268119459855,0.1710717681228956,0.4617573749176629,0.6599696425362868,0.49087032837814853,0.5291442876749156,0.5608469651959643,0.21397709611190338
0.36844927206246686,0.17062299149425744,0.4617207496667859,0.6594225318762157,0.49035565010948756,0.5311209167115688,0.5631548126184276,0.21451660716533252
0.3679731187597733,0.17018276838141388,0.4616411113391045,0.6584698308316257,0.4896907987090735,0.5331206790953301,0.5649590844736349,0.21507963721216844
0.36747664260577606,0.16975783804148806,0.46144017456078407,0.6572170020454265,0.4891102644616325,0.5348999445437792,0.5663601538447199,0.2156245049089694
0.3670146937060843,0.16942817759966267,0.4614376443529829,0.6558521322998704,0.4888182083009565,0.5366805278084351,0.5675747684105268,0.21620496112285634
0.3665059861656156,0.16918996524255012,0.46181210785440135,0.6543479784070623,0.4887823181291417,0.5386411733442287,0.5686566598575377,0.21691250227230766
0.36603327451740103,0.16893916763925731,0.46235961406778303,0.6526919874461399,0.4890583561052292,0.540457923583879,0.5695169479893458,0.21772755071912708
0.36567568233497666,0.16862308619423838,0.46271775904106427,0.650892356451467,0.4896124426192303,0.5420550462817446,0.5703115233091888,0.21856441626441198
0.3654018083654541,0.16828497878457524,0.462794136639257,0.6489236351489938,0.4901110339698046,0.543440543723266,0.5714503175453448,0.21931436761066678
0.3652417087016594,0.1679863025861482,0.46264771937787813,0.6468552458439443,0.4903354239278077,0.5445487292590677,0.5730041901799435,0.2199135981578164
0.36509699033854004,0.1677189464621542,0.46230838832137533,0.6447536902264869,0.49038422904735246,0.5454641294581974,0.5747530246425966,0.22040150892952767
0.36499386839424386,0.16742831983942724,0.46184502798382354,0.6426291244546288,0.49032520606905355,0.5462544118894274,0.5764927675507429,0.22082926810626743
0.36498412243215517,0.16708897073316956,0.46125010365833385,0.6404043681480419,0.4900360646597788,0.5469041928812545,0.5781485888835468,0.2211990766810127
0.3648698114142878,0.16670334406329698,0.46057002271847286,0.6381260388041492,0.48948028238907354,0.547358777200287,0.579789396515734,0.22145960831412728
0.3645686723096422,0.1662871950888193,0.45984925805724686,0.6361663915697744,0.48884381786855585,0.5476930680455752,0.5811668784890952,0.22160867429892275
0.3642228337934836,0.16582888005387228,0.45894318250071736,0.6348477673136925,0.4882110231677978,0.547925342101035,0.5820437677943255,0.2218047515543055
0.3639014317643688,0.16529724404361942,0.4577804922874969,0.6338560865533509,0.4874486306499358,0.5478458578628698,0.5824476577218171,0.22214589715538713
0.36346330955852174,0.16468261467043982,0.45636677549619037,0.6326432225993457,0.4865095205678066,0.5474281242124285,0.582378655293149,0.22253187425286897
0.36290727643059106,0.16399587786034925,0.45470761971819595,0.6312667598818678,0.4853421054806107,0.5468075906953856,0.5822184188127921,0.22291356031946594
0.36243288584045963,0.16328094586289507,0.4530292431711956,0.6299424012671265,0.4840376651990221,0.5459736114714313,0.5824457704195953,0.22327740142577024
0.3620905355306002,0.16255979202092302,0.4517085149167279,0.6284217807827608,0.48291096757874297,0.5449630110765615,0.5828096390717208,0.2235569622413264
0.3618547601708261,0.16179995317021875,0.45070442413718015,0.6266146059979483,0.4821559549561974,0.5437911264418605,0.5828424101123204,0.22376232133372745
0.3619551644267681,0.16103727376569008,0.4496097090230477,0.6248025123868122,0.4817304603678225,0.5423791803633885,0.5824113491967708,0.223909876884247
0.36246395963827616,0.16030604333639048,0.4482555298445588,0.622933975531064,0.48139325251828075,0.5407322822186096,0.5815236570101235,0.2239551966878162
0.36306872544418634,0.15953205568620943,0.44680156032081036,0.6210399960162946,0.4810004153061103,0.5387886866400081,0.5802668936202274,0.22385587810173363
0.36364436027789565,0.15867780039759252,0.4454608052666251,0.619484549527127,0.4806483487961816,0.5365230476998994,0.5787519141875765,0.22360493055611708
0.3642651198212452,0.15782782178571647,0.4444235318810515,0.618067219631174,0.48038910877458035,0.5340317789983575,0.5770047743563251,0.2233295327365342
0.36492844381652323,0.15708972986836947,0.4437310410209561,0.6164624468317104,0.48023896948553635,0.5314140081401463,0.5751174811656278,0.2231647321239211
0.36561178430970814,0.15647274695010283,0.44306815032460034,0.6149473641797296,0.480373855524139,0.5287045035512273,0.5734055011170346,0.22307913785817166
0.36627349601087605,0.1559722057367168,0.44227375055688833,0.6136866856404237,0.4807010190639448,0.5258028922297628,0.5720099595446241,0.22304933269602192
0.36679353281277366,0.1556035872028563,0.44164850554323193,0.6125635975847505,0.48083068918987965,0.5226467782530697,0.5709050805936684,0.22307960697726603
0.36706388810283885,0.15531471267254526,0.44129932929455,0.6116868663264681,0.4807646370972456,0.5194174172511569,0.5700859857795401,0.22318069255057962
0.3670817792025464,0.15503553611304793,0.44100061145203945,0.6109664010832475,0.4807186965016595,0.5163618043616648,0.5694073276752251,0.22333604271758672
0.3668915897754311,0.15473247584263872,0.44063010049728846,0.6100618089645675,0.4805850625177953,0.5133884217258158,0.5688703445728754,0.22342948813741234
0.3665627194392393,0.1544135482990846,0.4400776127792305,0.6089418490485957,0.4802740716349585,0.5103160457684167,0.5684493403582648,0.22339008325159102
0.36621517348020705,0.15407306496578993,0.43923792851013715,0.6078710279353472,0.47994750831911126,0.5071786883748093,0.5679324168895454,0.22320358142644897
0.3659303304554293,0.15369223343062616,0.4381778264909809,0.607249401291271,0.47975345555817306,0.5039487725469696,0.5671370348054231,0.22287655500977813
0.3657057405236776,0.15328654665494443,0.43696139636083114,0.6071783960916761,0.4795994248722798,0.5005398354537794,0.5659423437013229,0.22250234381070944
0.365458770684561,0.1528507904666697,0.43560997785861716,0.6073934585547247,0.47926318926920974,0.49693620399593813,0.5646342876430199,0.22217027698733074
0.36509702856216725,0.15239337822086446,0.4342510889656489,0.6076145114366477,0.478672759869068,0.4932634791714475,0.5639210810845151,0.2218387279644803
0.3646325369310494,0.15201598192468233,0.43337444089074445,0.608021601765323,0.4781740507288877,0.4898290772420039,0.564078430545465,0.22151468028402319
0.36409695316071006,0.1517422325477564,0.4332541055510725,0.6089071199540653,0.47825163214781374,0.4866593870374445,0.5647206833354739,0.22125160844571687
0.3634537680012373,0.15147428690556358,0.4334361174407166,0.6098415771728714,0.47888707171112105,0.4838930562842631,0.565491849577278,0.22097357114712096
0.36270827836763886,0.15125226719842072,0.4338469883525032,0.6105210766160767,0.479841562945835,0.48184283893259794,0.5661916899842092,0.22059456975550726
0.3618990795296374,0.15119473917450735,0.4349109632645004,0.6109894715686203,0.4808729970980002,0.48009180934045553,0.5666688515182279,0.22012604365496952
0.3609962915141523,0.1512411225365033,0.43646491439521373,0.6110950207506197,0.48168953869921083,0.47827430084544376,0.566879062682294,0.2196525670420139
0.3599647372221136,0.1512397659062441,0.4379043709283066,0.610699613258923,0.4822195064211205,0.47655541996423634,0.5668872088457323,0.2192349857464738
0.35887786780379033,0.1511860592438717,0.43901896814197444,0.609932375835819,0.48261524709795256,0.47499939971461125,0.5667956665040033,0.21880441437000261
0.3577993099415852,0.15114250292697606,0.43991535051342484,0.6090575878652303,0.48289558358951495,0.4736140369188397,0.5665821123147461,0.21824148592834336
0.3567765454036409,0.1511755574511544,0.4407291685861972,0.6080406519256413,0.48299171479482494,0.47233976527762994,0.5661250215084676,0.21755249564443027
0.35595522802230256,0.15142895267006784,0.4416437453736511,0.6067015203158842,0.48291155278984504,0.4709189211482929,0.5653485011793042,0.21679038855763305
0.35528059489528097,0.15189955470443683,0.4425735878572134,0.6049752558716174,0.48254917480018844,0.46934587385834897,0.5644276451402447,0.21591227614214303
0.35454634435506316,0.1523969494464749,0.4432630686847596,0.6028669766524194,0.4818637071146478,0.46784939276115484,0.5635100197553833,0.2148772456455463
0.3537022883941319,0.15279914520611468,0.44373533934871023,0.6003953190249969,0.4809701411110518,0.46638079364947393,0.5623423042836212,0.2136998013607871
0.352807501267706,0.15310320473264188,0.4440996723691794,0.5976988074813527,0.4798917545664803,0.4647931917222767,0.5609565519378943,0.2124140126314241
0.35188510928803846,0.15331978507002078,0.44427348917514997,0.5949703374177673,0.4785440168575246,0.4632069523532391,0.5597313031325725,0.2111261183678435
0.35086365707557216,0.15347922246427606,0.4443451325415717,0.5922339896602158,0.4771003970497607,0.4621116223960728,0.5585471046529656,0.20994442871487856
0.3496882619834629,0.15365739170659154,0.4444861222370087,0.589546235946645,0.4757937779904335,0.46174099246126504,0.5570757041178163,0.20888552711901265
0.3484001783429785,0.1538466208145379,0.44455290357135646,0.5871816835332222,0.474445632780268,0.46160928268791374,0.5553978623573412,0.20793172805635493
0.347052348425715,0.15397270098279262,0.44445503353601434,0.5852957189578061,0.47283843105451057,0.4615190309255202,0.5537448068841581,0.20703258331034757
0.3455951821958327,0.15405831257218347,0.4444337701565122,0.58394291082655,0.47093818042861074,0.46161561368485493,0.5520501969554874,0.20614647014734017
0.34399472208365467,0.15415861917899665,0.4446061520922767,0.5831682557119318,0.46874607839281757,0.46175709949711297,0.5501570115134752,0.20524024797764331
0.3423255997980556,0.1542327696473031,0.44474964727344873,0.5826866248778705,0.46629029597935084,0.461921342582742,0.5481492531652119,0.20428892174786156
0.34069269988789885,0.15422165545186892,0.44467816576068153,0.5821915675679057,0.46365820816482617,0.46212725329052345,0.546040525144702,0.2032953699593972
0.3391561983099016,0.15412899261155033,0.4443743748449896,0.5815303682482312,0.46102048054610967,0.4622591608846765,0.5436901600738565,0.2022289570199228
0.3376799595704723,0.1539584143906996,0.4439690103042901,0.5809916952596077,0.4585002519406835,0.4621931207913272,0.5411844732336091,0.20108719280669327
0.3361625007703435,0.15369341352525184,0.44372762972014024,0.5811457361690187,0.4560413617601756,0.4618375095345406,0.5386462946382505,0.19987445410953522
0.3346605658246182,0.1533450350717678,0.4437168854858241,0.5821427602224685,0.45374380767590655,0.46132560130705536,0.536039370984621,0.19858831008627148
0.3334557402201038,0.15295066842157828,0.4437261867420409,0.5838916842754853,0.45198389614242196,0.4607850295899303,0.5333959503152459,0.1972599361690722
0.332843829750071,0.15263972591722755,0.44368779386425133,0.5860505911532067,0.45078676395242434,0.46014401638495195,0.530733542618534,0.19594593760729
0.33288657666703436,0.1525024858052244,0.4436840479797837,0.588633009993258,0.44984830046537283,0.4594409751379831,0.5281959484226891,0.1946803880533273
0.3332813665784488,0.15242455684846964,0.4436867032575214,0.5918787955738314,0.4489442203844183,0.45870602391772863,0.5258537391727237,0.19342897412805057
0.33370496595493027,0.15232989134205613,0.44360187560495906,0.5953615155218264,0.4479134394652998,0.45778079606334326,0.5234198753367282,0.19218560375516183
0.3340821683892807,0.15221262203426136,0.4433264733379836,0.5988201308934668,0.4466955992723878,0.4565808501882239,0.5208271441306922,0.19093775587791997
0.3344681135903019,0.15204710060264515,0.4428891018744394,0.6026668792695349,0.4452130870571154,0.4551059110904393,0.5181785558210218,0.1896667719272759
0.334948966427914,0.15183558370749062,0.4423908254123984,0.6072689653669178,0.4434721498093138,0.453422840557182,0.5154389790702353,0.18838157031997524
0.3355134523782805,0.1515735883944621,0.44186151552988895,0.612368485477977,0.44181331024772813,0.4516091676541027,0.5125481532465719,0.1870572658666764
0.3359768713167183,0.15129699098049884,0.44162395763914436,0.6178920980089873,0.4405488420573148,0.44956534359918315,0.5094953841241223,0.1857102082730481
0.33622282066796666,0.1510200649646676,0.44184622338013047,0.6238227267212321,0.43956253875937995,0.44723648355560125,0.5066115822160295,0.18434937275922106
0.336280571274784,0.15069629030218262,0.44214707440114326,0.6296087681668031,0.43864937187307523,0.44468402418428243,0.5041462552126179,0.18293655613794513
0.33625184916619094,0.1503012716301868,0.44234228446045504,0.6350971425775567,0.4378872762129418,0.44204049370121895,0.5018362175456211,0.18148206725549051
0.3362206713075831,0.1498384863167283,0.4425499170834773,0.640275428930701,0.43727042253364073,0.43956646813962325,0.49961009156393094,0.18002255102205802
0.3361938604712057,0.1493313839030275,0.44284946342495163,0.6450250700793453,0.43652565651974273,0.43729708567749176,0.497593413085559,0.178599750702508
0.33616456681233503,0.14876232195991934,0.44316978051826666,0.6494135955258336,0.43557902434536716,0.4350317515518645,0.4956586800918384,0.1772000724728482
0.3360593810108733,0.14810111264303025,0.44334919359771774,0.6533521718774484,0.4345338156426792,0.4326989313768883,0.4936905381740784,0.17575700329063765
0.33578141329832595,0.14737245655628628,0.4433669088052516,0.6568164340985696,0.4334621828089445,0.4305779341571311,0.4917057111850258,0.17426713600422405
0.3353986140887091,0.14659336006758708,0.44339039873247255,0.66019806304546,0.43246659804505,0.4291429912316486,0.4897135263744995,0.17284091792528636
0.3350228838080023,0.14576008134516247,0.4435531088361657,0.6639520297912807,0.43153803180089445,0.4282520133284747,0.4878633178048827,0.17157724932800508
0.3346877077808816,0.14487577942712873,0.44374854272090924,0.6682189925882956,0.43066778221532204,0.42755461015685114,0.4862175615104952,0.17040342685947726
0.3345053084801161,0.14395689723934946,0.4437210233950357,0.6727184727763185,0.4299076428643614,0.427210191822512,0.48446140772915847,0.1693099934338217
0.3343823054818673,0.14301251058948197,0.4433264892082095,0.6769947490697881,0.4291933890407773,0.42715026378294907,0.482594663430059,0.1684148584536016
0.33412234372254385,0.14203126764444643,0.44268824544085605,0.6807926404057811,0.4285103443864534,0.42699479351461267,0.48088468890467767,0.16770358283899028
0.3337249399487189,0.14101571737078458,0.4419512180818771,0.6841025251974173,0.42787786996410204,0.4265408184496361,0.47915917353269366,0.16704183030039033
0.33316970673644364,0.13999507490444005,0.441207328859759,0.6871496795108615,0.42710717207500726,0.42590203810515836,0.47717307823380034,0.1663545421312502
0.3324105511819328,0.13902403453172482,0.44062474299704946,0.6902233888877803,0.4261047121503187,0.42528099281105564,0.4749797600267561,0.1657036651363709
0.3314637538708529,0.13808800629724632,0.4400833520717982,0.6933061599641666,0.425062050289036,0.42457053618052987,0.4727441185114111,0.1650949313543401
0.3303651269130517,0.13712619879043356,0.4393077644619319,0.6963946227330949,0.4243095518961217,0.4236950081523485,0.47062392821771504,0.16442680777752108
0.32907552724198896,0.13613397489332027,0.43837576581613813,0.7000337963806668,0.4243969541713866,0.42292986555481166,0.4687365661430932,0.16366909052800815
0.32773153198462374,0.13509355645683305,0.43746888777598575,0.7042229794634068,0.42545482259199807,0.42247162876364236,0.4670202489236432,0.162866520269953
0.3265240092308767,0.13397461252535856,0.43649331086716686,0.7082188291108948,0.4270187478516167,0.4222271717294844,0.46529536576580804,0.16210205243032
0.32553511157754095,0.1328418093844861,0.4353125573101588,0.7118854841085076,0.4290852865729239,0.4221272667904269,0.4634436070038038,0.16141488498788106
0.3249903014941902,0.1318305620365557,0.4340236006738638,0.7154476606566239,0.43163060191145636,0.42227270396202676,0.46150570371058797,0.16082906598447125
0.32477720318907205,0.13094993631679006,0.4327059329672837,0.7187794268216128,0.4340430666913481,0.4227529704800215,0.45977476636098985,0.16046110393501728
0.3245673675758537,0.130081444856943,0.43121498300088745,0.721580024893301,0.43605200090869023,0.4233391016927038,0.45838387712262585,0.16030857277528007
0.32431405377382244,0.12915853927833265,0.42955972040167656,0.7237896022356899,0.4377732903325106,0.4236916335301223,0.45717251057840047,0.16019510907630696
0.3241330569639927,0.12831150835371055,0.42804975157952346,0.725612229992748,0.4392779467401966,0.42384712083187864,0.4559802578838197,0.1600856948811226
0.32427547551413505,0.12771839336579432,0.42674039396691155,0.7271231375273244,0.440573931556417,0.42398112516960945,0.4547272080154177,0.16014072274508212
0.32473380343986696,0.1272818152722938,0.4254035573526749,0.7281338337450758,0.4418161526818898,0.42414125242032513,0.4534840722759949,0.16039310921984598
0.3251930020582804,0.1268282441899589,0.4240550984119427,0.7288456009899988,0.4432798713236544,0.4244198161436531,0.4526260334343088,0.1606668853091192
0.3255656728014214,0.12631874074068059,0.4227904274173939,0.7295849822951855,0.44498079270361257,0.42482477249871503,0.4524246810049825,0.16090068359824422
0.3260624806412956,0.12580302911157648,0.42146671917504636,0.7301561711594234,0.446726445969862,0.42512960148011525,0.45249063067994916,0.1612163628327137
0.32693161765730505,0.12544233987346826,0.420061073365909,0.7304790077575467,0.44829256543545104,0.42513109538396976,0.4524177315277435,0.16169029144925862
0.3280825192003988,0.12532388790365928,0.4188592178308186,0.7307177498331664,0.44974561457818296,0.42495609581572813,0.45218534397081595,0.16232850687198852
0.3291274162660185,0.125343657460848,0.4179270024041324,0.7309827966011326,0.4512562530459697,0.42500022682412864,0.4518340529149581,0.16305639410258993
0.3300364768668555,0.1254621930886735,0.41707977470482227,0.731098914262715,0.45301441246361807,0.4254611877727651,0.45154988538009627,0.16379580810969924
0.33104204875718285,0.12571520406310424,0.4162344279732635,0.7310657766709991,0.4552750772557157,0.42613989897461796,0.45144385999087544,0.16459233580395555
0.3320319918293651,0.12600299895599565,0.4152713494232379,0.7312442574724642,0.45780027732590156,0.426765490340232,0.4512810152644097,0.16544941219197218
0.33283888067388295,0.1262234990263548,0.4142433867166399,0.731651732014514,0.46015486391287824,0.4272594348441073,0.4511442090261309,0.16626997523952985
0.3336236681001056,0.1264061595975892,0.4132613271790902,0.7320171034687574,0.46211665560731957,0.42758686077808167,0.4513867973864467,0.16696790207701237
0.3346071933790097,0.12659925036710062,0.41219040506055216,0.7321145262968451,0.46365402616741463,0.42782154785959625,0.45189845568933845,0.1675277903569703
0.3357999284257104,0.12680213166000062,0.41112243331295123,0.732142757221486,0.4649644559039997,0.4282347377686159,0.45229926969292555,0.16796178414534696
0.33705791116037676,0.12702086810133897,0.4102321495903624,0.7323655280249135,0.466357409631134,0.4288784481073349,0.45236634688166233,0.16825487749814708
0.3382901742524241,0.1272278156919987,0.4093722866995786,0.7326404505653286,0.4678480142140753,0.4297420398441286,0.4523414479127154,0.1685399435961001
0.33943647212426564,0.12736979930423456,0.40843537753953224,0.7328045302003291,0.469076231452347,0.4308418678156913,0.4525495195690669,0.1689574610981028
0.3404192023811238,0.12744950495758953,0.40749253432528865,0.7329493427505342,0.4699653605660163,0.4322869514246597,0.45277297234546043,0.16940766770855684
0.34128464003169584,0.12750967779733757,0.4067053880834703,0.7333029081262622,0.4707031134886549,0.43418792512309895,0.45285045920609196,0.16984859250836393
0.34203036070244514,0.12760459618786707,0.4063420568554913,0.7340898217474574,0.47130872812790314,0.43612198508629557,0.45305568665019086,0.17030695698270815
0.34257392950356264,0.12773934453177843,0.4063978458804194,0.7352771202693988,0.4718943373117738,0.43791867744170904,0.45367708739001156,0.1707213871584927
0.3429436642935278,0.12785857424164518,0.4065001323025402,0.7364451009266572,0.4725404764852432,0.4398363033462126,0.45478957949944987,0.171066648336336
0.34312670444157883,0.1279561586374261,0.40657325126931193,0.7373527812425902,0.4730901144860241,0.44199478925567043,0.4562370288300367,0.171392214697964
0.3430975565261597,0.12804631604167396,0.40683903618619377,0.7378902494309953,0.47350679853500394,0.4443214108120616,0.4577226718783537,0.17171868565656614
0.34290558532571885,0.1280757945297549,0.40716851072634525,0.7378858679425456,0.473849391673417,0.44655254899615193,0.4590094061972033,0.17197884717335432
0.3425313080609677,0.12802045870809983,0.4073245806911768,0.737316386123114,0.47416758454703856,0.4486099676929557,0.46021829458925495,0.17219538750597188
0.34213678536936215,0.12792416344286361,0.40747509382989205,0.7362871424035875,0.4744220145818817,0.45048585789793827,0.4615320736095871,0.1725772577933257
0.34193722846184393,0.12780883951024574,0.4078541547059634,0.7348993414647046,0.4745349755907911,0.4520258342201815,0.46281119764440826,0.17321719404419608
0.3418842417768229,0.12768879707236008,0.40834449024957514,0.733136474947514,0.47459273769061333,0.4532095777224309,0.46388878890571467,0.17393621498934891
0.3419046475251112,0.1275911008879921,0.4088003864480537,0.7312371802450424,0.47485171011488186,0.4544458974390739,0.46465890370083424,0.1746232144635619
0.3418949473287638,0.12746807251153855,0.4092563295407548,0.7293696825719723,0.47545667592662855,0.45603218294984577,0.4650204991093852,0.1752856067022206
0.3418364009839357,0.12724738606738736,0.40965838967270357,0.7273405104259564,0.4760644037162903,0.45764414067987225,0.46502440855541044,0.175930507502015
0.3417044438708374,0.1269334984748009,0.4100419500065931,0.7253124255667612,0.4763666328453908,0.459004974646609,0.46484663488096145,0.17661154199915474
0.3413619885106931,0.12660430844707227,0.4106548244759635,0.7234611735391981,0.47644989287520206,0.4600774822881664,0.46458884835366254,0.17729305268992032
0.34080514109393073,0.12633434427933518,0.4114329686072074,0.721780857104248,0.47649745382325737,0.460879843723049,0.46427483277680953,0.17787407161342522
0.3400771856824923,0.12613466477492793,0.4121076969282744,0.720312471946824,0.4767047137935428,0.46151662724146,0.4638939629118834,0.17843195033130982
0.3392464343825534,0.12596897862788126,0.4127296537819361,0.7187874737333025,0.47705116084912047,0.4619476117980281,0.4634093959811377,0.1791209327808604
0.3384853052164954,0.12580922475468528,0.41342756509124484,0.7170292741855254,0.4773097754716774,0.46207434930460384,0.4630199987664655,0.17988116887414857
0.33788511084202155,0.12566198554684502,0.41419077041182106,0.715029646943161,0.47737046363945523,0.46209714557849274,0.4630964249121786,0.18064196868889135
0.33741269325756257,0.12550011549649565,0.41494214998435386,0.71267398094997,0.47731531341353983,0.4621475286439313,0.46363172957136195,0.18142263108658235
0.33724347660454507,0.12537789431462693,0.41580183947794735,0.7101471714399213,0.4773098748481415,0.4620236724144003,0.4642577851528638,0.18218810946193145
0.3375850847398733,0.12542743608683496,0.41700499651549644,0.7077867069075079,0.4773386209995581,0.46172658231020847,0.4648496963639197,0.18299849822349848
0.338308014029122,0.125634542843059,0.41830152529387815,0.705473976269007,0.4772930633067839,0.46133093280164134,0.4654685491281329,0.18391792289381748
0.3391275575489744,0.1258985640819957,0.41941867833891044,0.7032693115660577,0.477176474724754,0.4606742400387926,0.46601897184376706,0.18490064180244012
0.33978465932568747,0.12614322611821868,0.4205035771575443,0.7014977568666111,0.4769987405077516,0.4596815645928444,0.46636300179409407,0.1858961539830524
0.34041277721911245,0.12640924975078735,0.4219376753855459,0.7003427797496257,0.47680949109033066,0.4585423002085338,0.46662293713138536,0.18685614070458115
0.3415140109153744,0.12678905321244519,0.42391836410271816,0.6999057342056896,0.4766562112680176,0.4574644956136065,0.4669425863844082,0.1878948801874028
0.3431670266824003,0.1272906972824133,0.42617928391815074,0.6996142812219728,0.4764973701914709,0.456740702525517,0.46713852524305266,0.18919515400540876
0.3449785227408042,0.12788834504802543,0.4285188675287026,0.6992283668652696,0.4764938257827557,0.45670390529728566,0.46726942817292844,0.19061062242361917
0.3466924829325525,0.12853044587182785,0.43083783441831613,0.6990667085000601,0.4767792378785811,0.45707690483660596,0.46758537532132893,0.19189421861456188
0.34825131750130633,0.12924119189654648,0.43318164337832704,0.6988790225070549,0.4771468812742416,0.4573133423978798,0.46790418551225377,0.19299026044287618
0.3496134610019893,0.13002359982833067,0.43560712565298515,0.6983590672594532,0.47741899275576216,0.45723840343530964,0.4680515917297358,0.19391252612730753
0.35085300538409175,0.1307534529646196,0.4379546134265951,0.697428180583056,0.4775593453577642,0.4571732454672943,0.468295652460645,0.19472116458466399
0.3522415198193527,0.13137215692966758,0.4401316263457296,0.6960449451713527,0.4775467855186765,0.4574919197857451,0.46884588236275215,0.19549387844323998
0.3538647934528857,0.1319708619424965,0.4421234129913053,0.6942437257711387,0.47728099511040967,0.4579969180290219,0.46956809806303956,0.19624485475638276
0.35548373490498014,0.13263009052229197,0.44402301707714537,0.6920511113463828,0.47670637566472707,0.45849913493887884,0.47036721103396384,0.1969475693216037
0.3573510357091427,0.13335994800250647,0.44585266843427757,0.6893926239571848,0.4758235306063035,0.45918541323951445,0.47156003390922474,0.1976034409909559
0.35980845589092214,0.1341967762048357,0.44760695458531813,0.6865384556331058,0.4745865330303448,0.46008052151240175,0.47346260361672393,0.1982673598153848
0.3624602510713861,0.13512174676244926,0.4494011181941573,0.6840481137054437,0.4730721409327557,0.4611277189257719,0.4759018353218203,0.19901188061944566
0.3649945463521414,0.13606996274528216,0.45111134700799116,0.6818480182955557,0.4713941602207217,0.4624731621877821,0.47851106908317387,0.19981272408767004
0.3674808606878929,0.13696595305499099,0.4525123149666965,0.6794529776643304,0.46952789006658274,0.4641159635990195,0.48095278643461703,0.2005663801686993
0.3698988209138184,0.1377910643434104,0.4535960510024246,0.6769205773522998,0.4676772072722048,0.4659279538271506,0.483138306343108,0.20126079993774607
0.3721822035204546,0.13860775374721845,0.4544889557907084,0.674740620075544,0.46609060148775805,0.46770613851706233,0.485116767952447,0.20193131693989022
0.3743279663419965,0.13946240046805997,0.4554324685084375,0.672919952427606,0.46456423599372443,0.4692496913849497,0.4867949698644394,0.20253820683524917
0.37642024968098603,0.14050630685894036,0.4568580660391476,0.6715717518693516,0.4631638261185023,0.47075452518141897,0.4881776541106084,0.20306359084805134
0.3785797047676569,0.14183721583171827,0.45890388532527676,0.6710044000728118,0.46208582892470507,0.472434820206583,0.48951033630388885,0.20357736324100145
0.38068098057409994,0.14326084963974436,0.46109972572803426,0.6706362637236811,0.46100972038939697,0.47410080858097825,0.49129534929090557,0.204092904506233
0.38281149411409904,0.14459128361306225,0.4634436338915848,0.6701514871725244,0.45986291185696115,0.4756378423931064,0.49362497434267694,0.20460295409871693
0.3852620999307339,0.14589145701202774,0.466455102819082,0.6700771116178239,0.4587632440802738,0.4775247443703509,0.49611225399296843,0.20511394420016715
0.3877891996460006,0.14728177679009616,0.47010890134705796,0.6705023496122883,0.45757601107158113,0.4802125056352253,0.498741249888598,0.20556516702387795
0.39004604570136947,0.14870349561885884,0.47389219998482346,0.6708835748244522,0.45637970978724507,0.4836035553381412,0.5014029761225943,0.2059922139798827
0.3920622613488725,0.15002015734929564,0.4774881647096047,0.6711822161145329,0.4554366414653977,0.4875637679949299,0.5038260024621388,0.20647595482565906
0.39400681987326736,0.15124174217790842,0.48092820850659884,0.6718963345637743,0.4546832243716373,0.4918372641025802,0.5061320238701924,0.20709369028200983
0.3959678752863746,0.1525182934262766,0.48416229835012536,0.672967069901677,0.45379770449216933,0.4960720060190367,0.5088119732869482,0.2079593482262309
0.39800299100748726,0.15388630575197013,0.48703579903493605,0.6739901058023107,0.45274656171645794,0.5002722754399859,0.5120609643883642,0.20913486461657033
0.4001136698276674,0.155226822643747,0.4894947467171387,0.6748862959822243,0.4517118430257097,0.5043619698256175,0.5154031730935955,0.2106524409370996
0.4023413920057209,0.15654643072269386,0.4918623362796863,0.6756268577049276,0.4509412139478133,0.5081881690761128,0.5185438257908062,0.21237540022312149
0.40477920985617344,0.15788488033641007,0.4946951862479443,0.6761710373668944,0.45059109096595057,0.5117720016783411,0.52139504590526,0.21409257525444247
0.4072016893032926,0.15913308524704356,0.49790348363786924,0.6766137610436244,0.4503627283784975,0.5150603664467536,0.5238396253130465,0.2157423859832716
0.4093932076157163,0.16025364637053438,0.5009329391468325,0.6768587209055958,0.450023732954948,0.5180696145748882,0.525899560992959,0.2173127951192454
0.4115355205518911,0.16131120239362332,0.5036145650316961,0.676914274548,0.4495725537159235,0.5207621685296755,0.5276764968146801,0.21879236512555597
0.41368887171741636,0.16236095791662983,0.5060678630167487,0.676922318318186,0.4491081047003961,0.5231692490489462,0.5292612468431727,0.22017024319807885
0.41558326434247295,0.1634490401276441,0.5085009655147379,0.6767311321094501,0.44910611370424425,0.5255215743627827,0.530546971570935,0.2215230637366136
0.4172615526686802,0.16457941896990777,0.510972574729366,0.6761623515862344,0.4499142134023268,0.5279329141315647,0.5316657714275844,0.22289741126656243
0.4189922597257092,0.165755851032826,0.5132847384490977,0.6752195628222314,0.45144961838366693,0.530826276874627,0.5331520106018867,0.22416399033041823
0.420811552425868,0.16699525710508314,0.5154087235716674,0.6739734166760976,0.4534652897664191,0.5347729722074445,0.5350083445253313,0.2252794596692177
0.4227673123849272,0.1682469023212598,0.5174643182954126,0.6725185304686974,0.4555372536876768,0.5395495810779589,0.5367421953245287,0.22634291239960827
0.42487177893851774,0.16946224475054789,0.5194725679325118,0.6710124708666518,0.45734013773275517,0.5443197984406678,0.538109831440067,0.22744249968027652
0.4269559952171008,0.17066843245960553,0.5213734175021714,0.6697464117102363,0.4588571507377037,0.5486179658704989,0.5392261361624696,0.22854215988443033
0.4289118537790237,0.1718312690109184,0.5231162114343273,0.6690253856065941,0.4601193088900879,0.5525607366277977,0.5402614166085522,0.22952716697085546
0.4307430443220935,0.17288465610047532,0.524759623322707,0.6686191389492788,0.46108298107849865,0.5563536411219321,0.5410844752153631,0.2303346928395813
0.4323128115253912,0.1738390189756121,0.5263598729693906,0.6679594505920449,0.46170003445422747,0.5600129020907169,0.5416435661659265,0.23095161269467965
0.43347722343072737,0.1747177973505945,0.5278170017956105,0.667171632286871,0.4624796966775836,0.5634137612786783,0.5421033977027948,0.2313922999301243
0.43425277112365746,0.17548999767473594,0.5289619877333605,0.666903864276441,0.46424989291986246,0.566430445481738,0.5427285915487998,0.23173084705368482
0.43467566233380917,0.17611270424913267,0.5297203725502244,0.6671070617832658,0.46685889393646635,0.568963075895731,0.5436317052557823,0.23217863043194892
0.43475412798675217,0.1765918123390667,0.5301349681539995,0.6671320825136275,0.46956570434654726,0.5711305319378011,0.5444387480258737,0.2328173881564976
0.4345231176597716,0.17699327324574343,0.5302002562319046,0.6667192070534481,0.4722096835153836,0.5733878631766306,0.5448388757556731,0.23343762588018613
0.43403641879176375,0.17738693318683474,0.5301519898600885,0.6660817560363537,0.4751854805590772,0.5758961335109332,0.5449363025828944,0.23393926030204082
0.43333235635996314,0.17775269324763388,0.530382935635958,0.6657248647154004,0.4788970180616687,0.5786019007503601,0.5450449566530147,0.2343938207309338
0.432461171637938,0.1780312391490583,0.5308874230168348,0.6659041237192698,0.4831282194332117,0.5815140280223174,0.5455119147882971,0.23480959993458456
