-1,-1,1,1,-10,1,-9,-2,1652970144.124083
2,1,-10,-18,-5,14,8,15,1652970144.124083
-3,-1,10,32,-4,1,-5,-27,1652970144.124083
0,0,8,15,7,-7,5,-2,1652970144.124083
-2,-3,-5,-7,6,23,7,2,1652970144.137014
-6,-4,3,4,-12,3,2,-7,1652970144.137014
4,-2,-19,-15,-5,47,16,11,1652970144.137014
2,1,7,9,2,-9,2,0,1652970144.137014
-4,1,-5,-15,5,-5,-10,-7,1652970144.143995
2,-1,-7,-3,-6,7,-11,-1,1652970144.143995
-1,2,10,19,1,-24,-3,4,1652970144.151974
-1,-1,-4,16,-10,0,-7,-2,1652970144.151974
-1,-6,-26,-48,-20,-13,10,4,1652970144.1710591
-4,-4,-2,23,32,10,5,-2,1652970144.1710591
0,10,22,-26,-3,-3,-14,0,1652970144.1710591
1,0,-18,-45,-6,-16,-2,2,1652970144.1710591
-6,1,28,68,45,4,-5,-7,1652970144.1920555
2,2,14,-7,-13,0,2,2,1652970144.1920555
-7,-10,-15,24,-19,-2,6,0,1652970144.1920555
-6,-8,-6,-39,3,20,2,-1,1652970144.1920555
7,11,-11,-23,-17,-48,-27,0,1652970144.210012
-4,-1,16,23,-5,-15,1,-7,1652970144.210012
5,4,-24,-37,13,-3,-8,5,1652970144.210012
-5,-14,-4,7,-17,-7,-4,0,1652970144.210012
8,18,34,41,22,20,7,-1,1652970144.25199
0,-3,-14,14,12,-15,-7,-6,1652970144.25199
-5,1,29,12,14,-12,-2,3,1652970144.25199
-3,-3,-27,18,-11,13,2,-2,1652970144.25199
-6,-4,-27,-49,9,20,0,-5,1652970144.25199
2,9,65,-26,-12,5,3,4,1652970144.25199
-5,-9,-35,-15,-38,8,1,-2,1652970144.25199
10,10,-4,-14,-13,-15,-4,1,1652970144.25199
-2,-3,-1,24,-1,19,8,3,1652970144.265952
2,2,18,16,16,-2,-3,-3,1652970144.265952
-2,-12,-8,1,14,-12,-1,1,1652970144.265952
3,3,5,63,36,1,-3,-1,1652970144.265952
-7,-4,-11,-58,-77,-50,-3,-2,1652970144.2958715
-3,-7,-35,-101,-24,1,-1,-1,1652970144.2958715
-3,-18,6,-39,2,-3,2,-2,1652970144.2978659
9,23,2,43,6,-11,-14,0,1652970144.2978659
-2,-5,-1,34,23,13,0,-3,1652970144.3118293
-11,-3,9,29,18,0,-2,-3,1652970144.3118293
1,-7,-2,-23,-4,12,5,-2,1652970144.3118293
-5,-26,4,-13,-11,3,6,-8,1652970144.3118293
6,27,-9,9,6,4,-3,0,1652970144.3257952
10,12,-11,4,-13,-15,-2,2,1652970144.3257952
1,13,25,33,38,20,10,5,1652970144.3257952
-10,-13,-12,-35,17,8,-2,0,1652970144.3257952
-1,-9,36,43,-2,5,-1,-6,1652970144.3506927
-4,-3,-15,-1,-15,-3,-2,1,1652970144.3506927
-2,-8,-6,29,0,4,-4,1,1652970144.3506927
-5,18,11,-24,-8,20,2,-4,1652970144.3506927
4,-32,-25,-26,-5,3,3,0,1652970144.3717043
-5,26,-14,-30,-42,-9,-9,-5,1652970144.3717043
-1,2,-2,9,-15,-9,-5,-20,1652970144.3717043
-10,-35,-1,-30,-26,1,-2,-4,1652970144.3717043
-2,2,1,5,15,20,2,2,1652970144.3896554
14,11,3,13,6,4,11,9,1652970144.3896554
6,0,-6,2,9,-2,12,18,1652970144.3896554
-5,12,-10,-24,9,-14,-13,-12,1652970144.3896554
-4,-15,-6,20,-1,-15,-2,-7,1652970144.4105906
-25,-31,18,-11,32,41,10,-13,1652970144.4105906
16,2,-14,4,-5,-20,-14,-9,1652970144.4105906
3,7,10,-15,-6,-11,1,2,1652970144.4105906
-2,-15,-35,-38,9,8,1,0,1652970144.4355366
-1,4,11,41,-26,-45,-10,0,1652970144.4355366
-17,-9,37,23,4,-8,-1,3,1652970144.4355366
4,-2,-5,25,27,48,2,0,1652970144.4355366
8,-29,11,-11,-35,-1,-6,4,1652970144.4494638
-36,-62,-17,-11,36,37,-7,-28,1652970144.4494638
8,35,-6,-1,-23,-8,-25,-9,1652970144.4494638
10,-3,12,40,4,3,33,76,1652970144.4494638
1,22,8,-18,1,8,8,27,1652970144.4739761
8,-8,-19,3,-28,-5,-4,-26,1652970144.4739761
4,-26,-18,-47,-14,24,-5,-50,1652970144.4739761
0,4,-24,-19,-20,16,-21,36,1652970144.4739761
13,27,7,24,23,27,18,23,1652970144.4919279
7,12,31,-5,-2,-15,-5,3,1652970144.494966
-13,9,7,14,22,54,0,-2,1652970144.494966
-2,-2,-15,-24,-26,-42,-13,-36,1652970144.494966
-17,-28,-7,-1,15,17,1,-8,1652970144.5079212
11,6,-26,16,51,45,-2,0,1652970144.5079212
-7,28,-18,-34,-41,9,5,5,1652970144.5099216
-2,-30,-3,6,11,46,1,-13,1652970144.5482242
-10,-21,36,41,-26,49,-12,-1,1652970144.558959
9,30,-3,12,12,77,3,8,1652970144.558959
19,30,25,24,26,92,6,29,1652970144.558959
-22,-42,-7,-21,-21,119,-1,-20,1652970144.558959
16,37,8,-9,36,39,1,-25,1652970144.558959
6,-39,-31,-18,-26,16,2,7,1652970144.558959
37,55,14,18,-12,-25,7,22,1652970144.558959
-6,25,16,-36,-15,-23,-2,-24,1652970144.558959
-21,4,-4,-4,-21,-7,-8,-27,1652970144.5884292
-13,-57,12,-1,-24,-60,-9,-4,1652970144.5884292
-7,-47,-33,8,37,-115,4,35,1652970144.5884292
12,107,27,30,4,-126,11,8,1652970144.5884292
4,-18,25,-20,-42,-121,5,33,1652970144.614167
-2,29,-25,-44,-1,-125,5,-13,1652970144.614167
-24,-57,-28,3,18,-98,-34,-41,1652970144.614167
-4,-45,-7,24,19,-8,20,26,1652970144.614167
-11,29,-39,-16,18,2,2,-20,1652970144.626129
12,29,43,15,-4,40,3,-14,1652970144.626129
-1,2,-57,-1,-12,51,11,-3,1652970144.626129
28,-38,0,-1,15,22,-4,1,1652970144.626129
4,68,47,13,-3,16,0,0,1652970144.6331027
2,-10,-1,-17,-13,-92,-4,4,1652970144.6331027
-3,15,26,-21,-1,-98,4,14,1652970144.6331027
5,-7,29,62,4,-124,-6,-14,1652970144.6331027
5,-28,9,-23,3,-84,-2,-3,1652970144.6470728
-10,-25,-59,17,25,-32,0,14,1652970144.6470728
-5,6,64,23,-5,-62,21,8,1652970144.6542509
-15,-31,-37,-29,0,-42,-19,-16,1652970144.6542509
-15,-41,6,7,20,-18,-4,-10,1652970144.6801426
6,28,-4,14,-3,25,-1,-4,1652970144.6801426
-4,-63,-45,-24,-36,56,-6,0,1652970144.6801426
-3,34,3,-28,-28,39,0,-6,1652970144.6801426
14,28,13,47,55,61,3,5,1652970144.6871245
-5,12,15,31,13,54,-4,3,1652970144.6871245
-9,-14,-4,-21,-12,38,-2,-6,1652970144.6941063
-8,-3,-7,-30,11,53,0,-8,1652970144.6941063
-9,-43,-68,-34,-33,-93,-7,3,1652970144.712057
-1,-14,0,1,13,-100,3,17,1652970144.712057
-12,-26,-8,12,-31,-95,3,-6,1652970144.712057
22,107,52,-1,-2,-39,-10,9,1652970144.712057
3,2,9,4,14,15,2,-8,1652970144.7339664
-10,27,84,19,-7,21,4,-1,1652970144.7339664
9,16,-1,0,9,-10,-7,3,1652970144.7339664
-6,-22,-7,2,-3,35,5,-10,1652970144.7339664
2,-32,10,-16,-18,115,1,5,1652970144.747961
4,-6,-70,7,0,124,-5,6,1652970144.747961
-1,-9,31,-26,19,127,-1,-1,1652970144.747961
-3,67,41,32,-11,27,-1,-8,1652970144.747961
-6,-1,-18,-1,-21,4,-4,-4,1652970144.767921
-1,-9,3,-17,-16,34,6,5,1652970144.767921
-4,-26,-33,12,-4,36,-5,-8,1652970144.774893
-2,-33,-27,-5,5,21,5,1,1652970144.774893
7,4,-3,-31,-27,7,-8,4,1652970144.7898505
-7,4,-9,2,12,8,-9,1,1652970144.7898505
11,26,23,26,25,28,2,-2,1652970144.7898505
-8,-19,-2,-16,3,-4,-2,-1,1652970144.7898505
5,13,-12,-2,4,2,2,-1,1652970144.8078232
8,-12,-9,-19,13,3,0,0,1652970144.8078232
3,45,12,-2,19,25,-2,13,1652970144.8078232
-4,-25,-39,11,2,3,-3,-1,1652970144.8127894
-2,13,50,44,21,6,4,-1,1652970144.8297436
8,0,20,21,-20,-37,-7,-1,1652970144.8297436
-4,5,5,1,0,-20,0,-6,1652970144.8297436
1,-21,-14,-25,-13,-25,3,3,1652970144.8297436
-4,-14,-29,-31,13,-29,0,-1,1652970144.8880768
3,18,4,14,-15,-18,3,0,1652970144.8880768
-2,27,14,25,-8,-24,-2,-4,1652970144.8880768
-4,-2,-5,3,7,-26,1,-1,1652970144.8880768
0,8,-28,-12,-2,10,-8,-5,1652970144.8970902
-1,4,16,0,-10,-6,2,-1,1652970144.8970902
2,25,-13,-9,20,10,-4,-4,1652970144.8970902
-1,-16,-6,-1,13,19,1,0,1652970144.8970902
-2,0,15,38,-9,-11,0,0,1652970144.8970902
0,9,-27,-61,-10,-4,2,2,1652970144.8970902
-5,-19,-19,-17,1,4,1,-3,1652970144.8970902
2,-1,-4,-13,-12,-14,-3,0,1652970144.8970902
-2,20,2,-1,19,3,5,2,1652970144.9130473
-2,4,12,31,14,-5,0,-1,1652970144.9130473
-3,-40,8,4,-4,-21,-7,-5,1652970144.9130473
0,-19,13,15,-3,12,6,-2,1652970144.9130473
-3,-19,-27,3,-7,5,-5,-1,1652970144.9300034
4,1,20,36,-5,11,0,-1,1652970144.9300034
-4,3,8,6,8,10,1,0,1652970144.9379823
-3,-7,1,-36,-10,4,-3,0,1652970144.9379823
0,-3,3,-7,4,-7,-2,-1,1652970144.958926
4,-10,-19,-38,-8,-29,-1,-1,1652970144.9609199
-4,-17,-11,24,3,-32,1,-3,1652970144.9609199
3,-6,3,-6,15,-4,-2,0,1652970144.9609199
-3,-2,16,37,-19,-30,1,-2,1652970144.9738524
-6,-22,2,-12,10,-100,2,-3,1652970144.9738524
3,2,5,9,26,-38,0,-2,1652970144.9738524
4,0,4,10,-14,15,1,2,1652970144.9738524
2,-5,-1,-25,7,95,-1,-1,1652970144.9878469
-1,-7,-10,-3,21,61,10,2,1652970144.9878469
-8,-9,-26,-39,-44,-59,-5,-5,1652970144.9948287
-4,8,20,57,14,-2,0,-1,1652970144.9948287
3,-4,2,-28,10,-14,1,2,1652970145.008797
-4,-8,2,7,-35,15,-4,-3,1652970145.008797
-1,7,5,6,-5,58,1,0,1652970145.0117848
1,0,-23,-43,4,26,-3,0,1652970145.0117848
1,-5,-19,-13,-12,29,-2,-4,1652970145.0377147
1,6,37,52,-3,89,2,2,1652970145.0377147
0,2,-3,8,14,74,1,-1,1652970145.0377147
-3,-2,-8,1,-15,36,-4,-2,1652970145.0377147
1,4,22,12,10,-2,0,0,1652970145.0446956
2,0,-24,-41,-5,-84,-4,-1,1652970145.0446956
4,4,3,1,-15,120,3,-1,1652970145.056662
-2,-9,2,8,16,89,0,-3,1652970145.0586603
-4,-5,-19,-30,-13,76,-10,-3,1652970145.0656404
2,5,7,8,11,98,-4,0,1652970145.0736196
6,-3,11,7,10,53,3,0,1652970145.0736196
-4,14,1,19,12,93,6,-1,1652970145.0736196
-1,-2,0,-35,7,123,0,0,1652970145.0965555
2,6,2,-7,-23,78,0,11,1652970145.0965555
-6,-7,-9,-6,1,0,-7,-4,1652970145.0985415
-1,-4,-2,16,-7,-63,-3,1,1652970145.0985415
-2,-5,-2,0,-33,-121,5,-3,1652970145.106532
-9,-12,-1,-13,4,-89,0,1,1652970145.106532
-2,4,-1,-13,-34,-128,0,2,1652970145.1145077
16,4,6,28,42,-128,-2,2,1652970145.1145077
2,6,-5,9,-18,-128,0,3,1652970145.1314719
-3,-3,-22,-36,-2,-107,-3,-4,1652970145.1314719
-4,2,4,-28,-38,-127,-4,-4,1652970145.1314719
-6,-7,8,14,-8,-119,-6,4,1652970145.1314719
0,0,12,48,4,-88,-1,0,1652970145.154401
3,12,7,-10,16,-56,3,-4,1652970145.154401
-3,-2,-8,14,2,-48,0,-1,1652970145.154401
-2,2,-6,-26,-11,-52,-5,-2,1652970145.154401
3,0,-5,-8,-13,-115,-3,-1,1652970145.1771514
-10,-17,-8,-3,-14,-95,3,-3,1652970145.1811404
7,-3,8,24,68,-39,-5,-1,1652970145.1811404
4,35,5,19,-12,-7,0,-1,1652970145.1811404
0,3,-7,3,30,2,0,2,1652970145.18912
3,7,-1,-22,-60,16,-4,-5,1652970145.18912
-5,-16,-4,-19,7,8,2,-2,1652970145.18912
-13,-21,-7,-18,-17,-1,-1,0,1652970145.18912
3,22,3,8,24,-12,-3,1,1652970145.2110608
2,7,8,2,8,34,4,2,1652970145.2110608
-3,6,-12,14,-9,36,-2,1,1652970145.2110608
-7,-20,2,15,9,35,0,-3,1652970145.2110608
3,2,7,-8,-8,50,-6,0,1652970145.2369912
2,-3,-7,37,17,58,-8,-1,1652970145.2369912
0,2,-6,-50,-5,69,14,3,1652970145.2369912
-8,-8,-8,-2,11,64,10,-4,1652970145.2369912
-3,-13,-13,-37,-8,49,6,0,1652970145.2509565
-1,-4,0,2,12,41,-1,-2,1652970145.2509565
12,33,13,81,26,5,-5,-6,1652970145.2509565
8,0,7,16,-7,3,3,1,1652970145.2509565
-4,5,5,-2,-1,-4,3,-4,1652970145.2758915
-3,-8,-20,-12,-2,-3,3,5,1652970145.2758915
-13,-21,-12,-11,8,-17,-2,-5,1652970145.2758915
-7,0,8,2,-5,-10,-1,-3,1652970145.2758915
12,16,3,19,17,16,-2,4,1652970145.2958338
2,15,0,-53,-30,7,-7,-1,1652970145.2958338
18,19,-1,5,-28,17,-4,-6,1652970145.2978327
-17,-9,-9,-21,23,22,-4,-2,1652970145.2978327
-12,-14,-2,26,-38,36,-1,-2,1652970145.305829
-1,1,-6,20,20,17,-10,-2,1652970145.305829
0,-6,2,-27,-7,27,-3,0,1652970145.3137898
8,9,4,-25,-15,21,2,-3,1652970145.3137898
-1,-3,-3,2,10,9,-3,-1,1652970145.3317404
-3,-12,-12,-5,-37,21,4,-4,1652970145.3317404
3,11,12,14,16,38,17,7,1652970145.3317404
-3,1,2,4,0,-12,-15,-5,1652970145.3317404
-2,1,-1,-7,-13,17,3,1,1652970145.3921363
2,-11,-24,-34,25,2,-8,-1,1652970145.3921363
-15,-16,11,24,-38,-14,-4,2,1652970145.3921363
10,8,20,56,7,8,0,0,1652970145.3921363
15,3,4,12,4,1,7,-3,1652970145.416074
-19,15,-1,34,26,-4,-1,-2,1652970145.416074
5,-15,-18,-35,-16,-19,-8,-2,1652970145.416074
-15,-23,-13,-40,-23,-12,-2,1,1652970145.416074
24,17,1,-16,-11,5,-10,-6,1652970145.416074
2,-23,5,-5,10,27,9,-1,1652970145.416074
-30,8,-4,-9,21,-8,-1,-2,1652970145.416074
-3,-12,-8,-12,-26,26,11,1,1652970145.416074
-14,-10,1,-1,-2,7,-3,-5,1652970145.4490178
5,9,7,14,15,-10,-3,1,1652970145.4490178
-1,-5,6,7,9,5,-5,-2,1652970145.4490178
6,2,-4,-12,-7,20,6,1,1652970145.4490178
-11,-10,-15,-38,-5,1,-4,-2,1652970145.4490178
7,5,25,45,20,-47,-27,-5,1652970145.4490178
3,1,-2,-6,-15,-24,-15,8,1652970145.4490178
5,7,-23,-16,21,-13,-3,-4,1652970145.4490178
-12,-10,-1,15,25,17,5,-6,1652970145.46298
0,6,25,25,-38,-12,5,0,1652970145.46298
10,11,-9,-13,-20,11,6,-2,1652970145.46298
4,12,7,-14,5,-24,-6,6,1652970145.46298
-12,-14,-8,37,22,10,2,2,1652970145.4769459
1,1,4,6,13,9,2,-3,1652970145.4769459
15,2,6,0,-5,3,2,8,1652970145.4769459
-1,-2,-6,-16,-29,41,13,-2,1652970145.4769459
-2,-7,2,-37,-14,-24,-12,-3,1652970145.5325375
2,10,-13,-9,4,14,6,5,1652970145.5325375
-9,-5,-1,-5,-5,13,9,-7,1652970145.5325375
13,4,-1,2,10,-18,-9,-2,1652970145.5325375
-9,-3,3,-8,1,-22,0,0,1652970145.5424576
-2,2,-8,-12,-6,3,-3,0,1652970145.5424576
0,-6,-8,-10,9,33,11,3,1652970145.5424576
-4,-4,2,8,-8,-7,2,-2,1652970145.5424576
7,4,18,32,12,-2,0,3,1652970145.5424576
1,-5,-5,-23,-16,-1,2,1,1652970145.5424576
-3,-1,0,-9,-4,3,6,-3,1652970145.5424576
0,1,1,27,3,-1,-4,0,1652970145.5424576
-1,-3,-9,20,20,4,1,1,1652970145.552476
0,-5,-10,-31,-16,38,9,0,1652970145.552476
-2,3,10,1,-4,-27,-12,0,1652970145.552476
-3,-1,3,9,12,-20,-8,-2,1652970145.552476
2,2,-2,-5,-9,-5,-6,-3,1652970145.5764043
-5,-3,-11,-21,12,12,-3,-4,1652970145.5764043
2,-3,-6,0,-8,-9,-1,13,1652970145.5764043
-1,3,2,-3,2,-17,-3,-38,1652970145.5764043
1,0,5,12,0,10,1,20,1652970145.6003184
-3,-4,-4,6,3,-12,17,7,1652970145.6003184
-2,2,8,9,17,-31,-16,1,1652970145.6003184
0,0,1,-3,-5,-16,-11,8,1652970145.6003184
1,0,0,-8,-26,-10,-2,-12,1652970145.6073182
1,-3,-8,-4,34,-8,-1,-2,1652970145.6073182
-1,-1,8,19,0,-13,0,6,1652970145.6073182
0,1,10,-4,-4,-11,5,0,1652970145.6073182
-2,1,-1,8,11,-4,2,1,1652970145.6372457
0,-1,7,17,21,20,8,3,1652970145.6372457
-2,-2,-11,-6,-25,18,-2,-10,1652970145.6372457
-2,-3,-18,-20,-2,-16,-8,2,1652970145.6372457
-1,1,14,14,1,-18,3,-1,1652970145.6561902
2,5,15,-12,-39,15,-9,-2,1652970145.6561902
-1,0,3,22,25,0,-3,-10,1652970145.6561902
0,-2,-8,-34,-24,-4,1,8,1652970145.6561902
-4,-4,-7,21,-18,-14,-3,-3,1652970145.6701162
-1,-4,-5,-23,8,24,2,-15,1652970145.6701162
-3,3,-1,-52,-7,-19,-3,-4,1652970145.6701162
0,-2,2,11,-5,0,-8,19,1652970145.6701162
12,5,0,12,7,3,1,-13,1652970145.6950948
-10,-4,2,17,-8,-13,4,10,1652970145.6950948
-4,-5,-4,0,2,-4,2,-7,1652970145.6950948
-2,2,0,-27,14,-34,-3,4,1652970145.6950948
-1,-2,-15,-10,9,15,2,2,1652970145.717991
-12,-10,8,36,-12,-15,-9,-5,1652970145.717991
19,-14,-5,8,8,15,-1,-7,1652970145.717991
-10,16,5,12,0,15,-1,-15,1652970145.717991
12,-3,-6,-36,-12,-2,6,36,1652970145.7299912
9,9,-7,-7,-10,-15,2,2,1652970145.7299912
-11,-8,-9,6,4,-6,4,14,1652970145.7319827
-4,-13,5,-3,29,22,6,-14,1652970145.7319827
-4,-1,-18,-44,-59,-29,-9,-18,1652970145.7509396
0,1,19,29,30,32,5,7,1652970145.7509396
-7,-3,-16,-3,-16,-46,-13,-10,1652970145.7509396
11,6,38,49,68,31,6,4,1652970145.7509396
-8,2,-7,-31,-4,2,0,-1,1652970145.7724512
5,0,-19,-15,-39,-39,-10,-7,1652970145.7724512
3,11,38,17,3,28,4,8,1652970145.7804308
-26,-29,-18,27,18,6,1,-1,1652970145.7804308
-17,-38,-12,3,-12,-1,-3,-4,1652970145.7983854
59,56,34,-30,-15,-22,-9,0,1652970145.7983854
-47,-35,-24,8,6,34,13,18,1652970145.7983854
21,20,10,-7,-22,-38,-17,-16,1652970145.7983854
10,-1,13,27,0,1,5,-2,1652970145.8123507
-25,-31,-24,-6,10,23,3,-10,1652970145.8123507
17,17,4,-1,9,16,-7,-36,1652970145.8123507
-7,-19,-24,-36,-14,4,5,51,1652970145.8123507
-12,-15,-18,12,3,-4,18,-3,1652970145.8382432
2,3,17,12,-26,-30,-4,2,1652970145.8382432
0,6,-3,-18,17,19,7,6,1652970145.8382432
-15,-20,-3,6,3,0,-5,-22,1652970145.8382432
8,27,28,7,13,-1,-6,-4,1652970145.8542364
-11,-19,-5,10,33,24,7,10,1652970145.8542364
9,9,11,9,-19,0,-5,-17,1652970145.8592222
-2,20,-26,-50,-21,-2,1,3,1652970145.8592222
-4,-9,-5,12,47,18,-9,0,1652970145.874354
-14,7,11,53,-7,-10,-7,-6,1652970145.874354
-8,5,13,-17,-20,-7,-4,6,1652970145.8763494
-4,-36,-13,-34,-26,38,10,-3,1652970145.8763494
8,29,3,-19,-19,10,-4,2,1652970145.8952978
14,17,-3,-10,-2,-4,-13,-4,1652970145.8952978
-7,-22,-33,32,15,-6,8,6,1652970145.8952978
24,44,29,23,-8,3,4,-5,1652970145.8952978
-25,-7,18,10,26,13,-17,-26,1652970145.9102252
-3,6,-30,-47,-2,-33,0,11,1652970145.9102252
6,-18,22,52,-10,-36,-3,9,1652970145.9182458
10,29,3,20,-19,-25,1,-6,1652970145.9182458
-1,-14,-20,-27,21,19,0,5,1652970145.935202
-1,-1,-48,-41,12,11,-5,-9,1652970145.935202
-14,-5,47,23,40,4,0,7,1652970145.935202
-13,-36,21,36,11,5,2,0,1652970145.935202
-3,12,6,19,13,38,-4,-3,1652970145.9561367
1,-10,-23,-22,-38,19,18,1,1652970145.9591267
8,5,-20,-10,4,11,-2,4,1652970145.9591267
11,-2,22,1,-12,-12,-12,-15,1652970145.9591267
6,55,-3,-13,-18,11,5,11,1652970145.9746041
-32,-84,5,38,42,33,10,5,1652970145.9785838
20,57,9,40,-18,-4,-4,-4,1652970145.9849703
13,-2,-12,-34,-23,-10,-3,10,1652970145.987954
-6,-8,10,9,-10,2,-13,-65,1652970145.9929411
2,-20,5,10,21,-27,-2,30,1652970145.9949353
5,-5,-33,-42,-1,18,21,5,1652970145.9949353
-19,7,1,22,36,-4,2,-25,1652970145.9949353
-2,-6,-9,-18,4,-8,-17,47,1652970146.0149183
26,9,32,17,-9,-15,-15,3,1652970146.0149183
-25,-14,-19,-29,-9,14,-1,-25,1652970146.0178766
-3,-15,-26,-20,-71,-50,-7,-2,1652970146.0178766
-4,-12,6,-6,28,2,8,-18,1652970146.0368574
-10,9,4,37,-26,46,-4,-13,1652970146.0368574
10,5,36,-1,47,76,0,16,1652970146.0368574
-11,-1,0,9,19,73,-2,-1,1652970146.0368574
21,-37,-20,-30,-23,14,-4,10,1652970146.0507905
-27,12,-26,21,-30,71,12,-7,1652970146.0507905
23,77,-13,-39,-18,-20,-1,-12,1652970146.0507905
1,-7,12,25,19,22,7,15,1652970146.0507905
15,13,-16,-13,-47,-84,-12,-13,1652970146.1242442
-13,7,15,24,48,3,4,4,1652970146.1242442
1,-19,6,-17,-2,-18,-1,6,1652970146.1242442
1,31,12,8,29,-22,-3,-10,1652970146.1242442
0,-17,6,-2,2,-40,7,-1,1652970146.1242442
20,-5,-7,-15,-8,-98,-5,38,1652970146.1242442
-5,-13,-6,3,1,-47,10,52,1652970146.1242442
1,-16,-29,-9,11,-38,-2,6,1652970146.1242442
-1,-3,2,-13,-35,-35,13,17,1652970146.1689355
-14,-9,-22,-19,31,-42,-11,-45,1652970146.1689355
-15,-35,-33,10,20,-46,-13,-49,1652970146.1689355
6,23,68,33,35,-9,10,52,1652970146.1689355
18,-7,-14,-68,-66,-50,-5,-4,1652970146.1819348
-3,40,59,59,-39,-36,1,3,1652970146.1819348
13,-29,-25,-20,22,-12,-9,-1,1652970146.1819348
-8,-15,-39,35,22,0,-2,-19,1652970146.1819348
-13,12,1,21,37,9,-4,2,1652970146.1819348
-26,-70,-5,-24,-11,-27,6,-8,1652970146.1819348
45,56,-6,14,-21,4,3,-4,1652970146.1819348
14,36,36,-40,-30,-6,-3,2,1652970146.1819348
3,34,68,50,48,29,15,13,1652970146.1819348
-1,-25,-15,-22,-17,-29,-8,-19,1652970146.1819348
-46,-89,-18,2,-34,-56,-10,-39,1652970146.1819348
4,-24,-38,-22,2,-16,-14,50,1652970146.1819348
-8,-20,-27,0,-16,13,6,-1,1652970146.1938875
-7,-12,-18,-19,-37,14,12,4,1652970146.1938875
9,-6,2,-29,-21,28,-16,-9,1652970146.2028773
-1,18,-15,26,-10,-20,0,-21,1652970146.2028773
-1,21,31,16,9,7,7,10,1652970146.220828
6,6,10,-1,46,20,1,-12,1652970146.220828
-13,29,2,-13,-34,-6,-2,10,1652970146.220828
-11,-39,-50,-30,-13,17,-4,-14,1652970146.220828
-27,-54,3,34,24,9,-5,-5,1652970146.2348008
-5,91,21,-3,10,24,0,1,1652970146.2348008
16,23,26,0,-3,10,0,11,1652970146.2348008
24,22,5,-16,-7,23,8,-3,1652970146.2348008
-1,15,-16,-5,-15,10,-4,-8,1652970146.258728
10,-18,-6,-36,-2,19,-2,-6,1652970146.258728
-16,8,15,26,17,12,-13,-8,1652970146.258728
-19,-22,-14,-8,-12,9,5,-6,1652970146.258728
-3,-35,-32,-5,-7,5,12,6,1652970146.2826643
15,40,2,-13,39,3,-7,-3,1652970146.2826643
-6,-17,24,39,4,-1,12,7,1652970146.2847006
-3,-9,3,4,1,8,-9,-28,1652970146.2847006
7,1,2,-9,-19,9,-8,17,1652970146.2917173
6,-8,-5,-20,3,-8,-1,7,1652970146.2917173
-7,-1,-40,17,3,-26,-7,-14,1652970146.2996647
7,14,58,21,-3,-17,2,8,1652970146.2996647
-11,9,5,3,-4,-23,8,0,1652970146.3136663
4,-5,6,15,6,-81,-13,-6,1652970146.3136663
-1,4,5,-23,-22,-89,-2,4,1652970146.3136663
-1,4,-12,-15,12,-36,4,-6,1652970146.3136663
-6,-5,2,15,15,-3,-9,-6,1652970146.3475683
1,10,13,-2,-7,47,1,1,1652970146.3475683
9,3,-1,6,1,50,8,9,1652970146.3475683
-4,12,6,15,-11,42,0,0,1652970146.3475683
8,-39,-7,-27,5,47,-3,-4,1652970146.3535542
-4,-23,-20,6,-20,18,-1,-1,1652970146.355547
-1,27,12,-1,30,45,6,10,1652970146.3635635
-6,17,-18,-4,-22,7,-1,-5,1652970146.3635635
3,61,-24,-20,10,16,-5,-7,1652970146.381518
3,12,43,57,-10,12,0,12,1652970146.381518
-3,-17,-7,-19,1,47,0,-3,1652970146.381518
-2,-13,-10,-10,-15,7,-4,-2,1652970146.381518
-3,-14,0,16,-6,-2,3,0,1652970146.3964758
2,-9,-2,-33,-1,3,-3,-3,1652970146.3964758
-3,-10,-5,-29,4,30,2,0,1652970146.401466
-2,9,-11,0,18,4,-4,0,1652970146.401466
-3,-8,3,4,-13,-6,-1,-3,1652970146.4104407
4,-7,-14,-6,-3,-4,0,0,1652970146.4104407
-1,-16,8,7,-37,-26,10,0,1652970146.4224074
-5,-79,-9,-37,-3,-4,-1,-3,1652970146.4253995
-4,-18,-3,21,6,-12,-3,-5,1652970146.43638
2,21,-35,-73,-2,5,0,-1,1652970146.43638
2,61,50,81,28,0,-5,1,1652970146.43638
3,47,3,8,4,-1,1,4,1652970146.43638
0,32,-4,11,18,-5,-1,-4,1652970146.4583125
1,10,-3,-6,23,6,3,2,1652970146.4583125
-8,-21,-39,-71,-31,-11,-10,-6,1652970146.4583125
-1,-4,-5,-10,-3,0,-1,-3,1652970146.4583125
1,-9,14,20,2,2,1,1,1652970146.4762309
8,-29,-16,23,4,1,-3,-3,1652970146.4762309
10,-3,6,-10,23,22,6,4,1652970146.483214
6,-7,24,24,-10,-3,-1,1,1652970146.483214
-5,-10,-9,-27,1,-6,-5,-1,1652970146.4982061
-2,-3,0,3,-11,0,3,2,1652970146.4982061
-4,-4,-5,-10,11,5,0,2,1652970146.4982061
-1,7,27,35,4,-4,3,1,1652970146.4982061
-2,-3,-14,-9,-4,-22,-3,-4,1652970146.5181506
-8,-9,4,31,12,-5,1,-3,1652970146.5181506
-1,-1,2,-10,-12,-29,-1,2,1652970146.524103
-9,-8,-36,-42,11,-49,2,-3,1652970146.524103
0,6,18,4,-22,-39,-3,2,1652970146.5311172
0,-5,-1,4,6,-25,3,-1,1652970146.5311172
-4,-7,-8,39,12,-3,-2,-1,1652970146.5400937
-5,-9,-9,-38,-16,13,-2,-3,1652970146.5400937
1,7,5,14,17,40,-3,-2,1652970146.554057
-1,7,35,53,-22,60,-5,-2,1652970146.554057
-4,-15,-19,-21,-15,25,-1,0,1652970146.5620358
2,5,1,12,1,65,1,2,1652970146.5620358
0,-4,4,6,8,47,2,-1,1652970146.5809848
4,6,-15,-22,-14,29,2,-1,1652970146.5809848
-8,-22,-1,-8,13,6,-5,-4,1652970146.5809848
-15,6,-15,-46,-26,-11,-4,-5,1652970146.5809848
18,-13,-7,15,14,-19,-2,7,1652970146.5889633
13,61,7,28,2,-9,-2,-7,1652970146.5889633
-23,-13,-3,-21,-14,103,7,-9,1652970146.601932
14,6,5,-1,0,126,-3,-1,1652970146.601932
16,0,-3,20,-32,6,6,17,1652970146.6288571
-1,-13,-2,-11,3,-82,-4,-3,1652970146.6288571
6,2,-1,0,15,-128,-10,3,1652970146.6288571
-15,-4,6,22,51,-121,17,-5,1652970146.6288571
-11,4,-1,-4,8,-111,-2,-7,1652970146.6368449
-2,-17,-12,-29,-27,-102,4,2,1652970146.6368449
0,5,-5,-15,-16,-67,-6,-5,1652970146.644814
1,-7,29,13,11,-2,-2,1,1652970146.644814
1,7,3,30,-16,29,0,1,1652970146.652793
-10,-10,-10,-15,-12,46,-1,-1,1652970146.652793
3,-7,-1,22,-21,47,-2,2,1652970146.6597714
5,3,-9,-25,-15,8,-13,-1,1652970146.6597714
-5,5,-5,-40,-3,20,0,-2,1652970146.6787596
-7,-8,1,10,23,20,0,-2,1652970146.6787596
-1,-15,-1,9,22,-20,2,-1,1652970146.6787596
2,-7,-14,24,12,-76,-3,1,1652970146.6787596
3,20,12,48,28,-61,0,-3,1652970146.6996703
-2,-12,-28,-83,-48,-79,0,0,1652970146.7016652
9,16,30,25,-12,-91,4,4,1652970146.7016652
-3,-2,-6,6,-1,-62,1,3,1652970146.7016652
-9,-11,-1,-21,-14,-26,-4,-7,1652970146.7096765
-3,-6,-13,-25,24,40,-1,1,1652970146.7096765
-2,-10,-24,16,-17,45,-1,2,1652970146.7236385
-2,0,17,2,-6,45,6,-3,1652970146.7236385
-2,4,2,9,11,43,-4,0,1652970146.7366173
2,-2,14,21,-1,50,-2,1,1652970146.7366173
9,4,-14,-30,-13,29,-6,0,1652970146.7366173
-7,0,-7,24,-5,60,-2,-2,1652970146.7366173
-2,4,-1,-15,29,53,2,-1,1652970146.757549
-4,-12,3,6,-18,41,-2,-5,1652970146.757549
1,-5,-8,-13,11,26,-4,-3,1652970146.757549
10,12,12,37,1,6,-4,15,1652970146.757549
-3,4,-3,-22,-6,14,4,-14,1652970146.7755096
-13,-12,3,7,29,-4,-4,-4,1652970146.7755096
5,-15,8,3,-17,-11,-4,1,1652970146.783447
10,29,-12,-21,-27,0,6,-5,1652970146.783447
-3,17,-1,-14,-13,-5,-5,2,1652970146.796771
10,-2,-16,-9,-25,15,2,-1,1652970146.7987676
-9,-1,8,29,7,7,4,-2,1652970146.7987676
-1,-8,10,7,10,-2,-2,1,1652970146.7987676
-6,-12,-11,2,4,17,0,2,1652970146.8187122
2,13,21,45,5,11,4,-2,1652970146.8187122
-4,-1,-12,-19,39,-3,-10,-1,1652970146.8584454
-3,-6,-4,-42,-66,-7,-12,-7,1652970146.8584454
-2,-5,5,-3,-2,30,8,-1,1652970146.8654172
-4,-14,-3,-22,-12,12,1,-1,1652970146.8654172
-2,-1,-6,-7,-21,-15,-1,-1,1652970146.8654172
-8,-6,-4,27,30,10,1,-1,1652970146.8654172
10,12,-4,-11,13,13,1,-2,1652970146.8654172
-1,-3,14,27,0,-17,-35,-3,1652970146.8654172
-6,29,12,2,11,30,20,3,1652970146.8654172
-22,-31,-12,-17,-24,-9,3,-17,1652970146.8654172
16,17,0,20,9,1,14,22,1652970146.9446812
4,-11,-13,-22,2,-1,3,3,1652970146.9446812
3,-5,6,-11,3,60,10,0,1652970146.95558
4,-1,23,36,-24,-11,-12,-4,1652970146.95558
-9,-15,1,17,-3,-9,-10,-9,1652970146.95558
-2,14,-4,-10,-7,0,8,2,1652970146.95558
3,1,-11,-2,3,-2,-11,4,1652970146.95558
0,0,-24,-40,13,33,7,-3,1652970146.95558
-9,-24,-12,0,-2,-14,-13,-10,1652970146.95558
2,1,20,17,15,20,19,6,1652970146.95558
-3,-1,19,-15,-42,4,-5,-8,1652970146.95558
5,-2,0,1,4,17,23,17,1652970146.95558
0,0,-10,-31,-14,-16,-7,0,1652970146.9566226
-3,4,-11,-16,5,-7,-3,-6,1652970146.9566226
-1,4,-11,27,4,-20,-10,0,1652970146.9566226
-5,-5,-5,-4,-7,21,3,-1,1652970146.9566226
1,5,-9,-34,-12,6,9,-2,1652970146.9566226
-8,0,17,43,26,33,18,0,1652970146.9566226
2,3,1,-4,10,18,12,0,1652970146.9735615
1,4,-2,8,-14,-27,-5,-1,1652970146.9735615
-10,-16,-4,24,12,-21,-8,-6,1652970147.0142822
15,0,7,-4,-3,-20,-8,2,1652970147.0142822
-12,9,-5,-58,-40,-13,-3,-3,1652970147.0212657
-7,-7,-8,32,27,11,2,-6,1652970147.0212657
-1,1,11,6,37,-9,-1,4,1652970147.0212657
1,5,1,16,37,10,-2,0,1652970147.0212657
3,-10,-8,-8,-76,-39,-4,-3,1652970147.0212657
2,-1,-4,-18,17,9,-5,-1,1652970147.0212657
0,1,1,-35,-56,-3,0,2,1652970147.0212657
-5,-7,-9,2,19,20,2,-1,1652970147.0212657
1,1,16,26,35,-10,-9,-4,1652970147.0212657
0,1,-13,-35,-13,-1,-4,0,1652970147.0212657
-3,-5,-1,16,10,2,1,-4,1652970147.0553923
-3,4,1,-11,-9,-23,-5,-1,1652970147.0553923
-1,-8,-17,-11,6,5,1,3,1652970147.0553923
6,11,14,16,20,-30,-12,-2,1652970147.0553923
-4,-4,5,17,6,3,-4,9,1652970147.0603786
-3,3,-3,-25,7,-55,-17,-19,1652970147.0603786
1,1,3,26,3,-10,2,-4,1652970147.0603786
-2,-9,-7,-15,-10,53,25,-6,1652970147.0603786
4,2,6,-17,-43,-24,-9,-18,1652970147.069355
-6,-5,-16,-10,1,9,0,31,1652970147.069355
1,-2,17,55,50,5,-3,2,1652970147.0893018
2,4,8,9,19,-9,-6,4,1652970147.0893018
-1,-2,-7,-13,-43,13,19,-1,1652970147.096283
-1,-1,-11,-4,-24,-19,-12,-7,1652970147.096283
1,2,2,-32,-2,-7,6,-4,1652970147.1032643
-2,-4,-15,-11,4,-18,-14,1,1652970147.1032643
-1,6,27,-2,4,-5,-6,-3,1652970147.118227
-1,3,8,31,-5,-2,0,-6,1652970147.118227
1,-2,-6,-14,5,-31,-9,6,1652970147.118227
2,2,3,-13,-8,-7,-1,-2,1652970147.118227
-2,-7,-24,-8,19,-7,-6,2,1652970147.1401656
0,-1,-1,-10,1,-17,5,1,1652970147.1401656
0,4,8,-15,-15,24,2,1,1652970147.1401656
3,4,4,32,-14,-22,-3,3,1652970147.1401656
-2,-4,-6,13,19,3,-1,-2,1652970147.159115
8,-2,-3,-4,-9,12,8,3,1652970147.159115
-14,-8,-10,1,15,-7,-8,-5,1652970147.159115
4,2,1,14,9,-49,-19,0,1652970147.159115
-3,-1,2,4,22,18,9,20,1652970147.1800587
-2,3,5,16,-28,0,-6,-34,1652970147.1800587
7,0,8,-11,18,-2,-5,13,1652970147.1820536
-6,-6,-10,-20,-8,6,0,-20,1652970147.1820536
-1,2,2,9,-1,-10,-1,-7,1652970147.2059894
-1,2,-3,-16,16,27,6,11,1652970147.2059894
-3,-6,-9,13,11,2,2,-4,1652970147.2089813
0,-1,4,4,-25,-7,0,13,1652970147.2089813
0,-1,-5,-18,-3,-13,-14,-16,1652970147.2159774
1,1,-4,-19,2,20,5,3,1652970147.2159774
0,-7,-44,-5,-13,4,1,-2,1652970147.221947
-5,-4,15,-23,1,-4,2,2,1652970147.223942
-4,9,26,19,13,5,4,2,1652970147.242891
16,9,25,26,1,-10,-1,6,1652970147.242891
0,-8,-1,38,11,15,0,-2,1652970147.242891
4,0,-8,-36,11,11,6,3,1652970147.242891
-5,-9,-28,-21,-26,-12,-6,-2,1652970147.2588482
-9,1,5,-9,-15,-11,-11,-3,1652970147.2588482
0,-2,-4,-3,13,-5,-10,-4,1652970147.2638347
-2,-6,-7,-22,2,15,17,0,1652970147.2638347
-11,-15,2,9,-22,10,4,-4,1652970147.272811
11,11,-9,19,1,-2,-1,18,1652970147.272811
-22,-3,10,9,14,19,-3,-18,1652970147.2807896
11,-12,0,5,3,-9,1,-5,1652970147.2807896
17,23,1,-17,-10,14,8,35,1652970147.2997415
-16,-8,-4,2,1,-27,5,-3,1652970147.2997415
14,14,-9,-20,-12,28,14,8,1652970147.2997415
-5,-8,4,35,17,-1,-12,-4,1652970147.2997415
-2,-15,-3,-5,17,-23,-3,-15,1652970147.3216803
-3,-5,5,9,-48,-31,-8,5,1652970147.3216803
1,-1,2,-31,6,0,-2,-2,1652970147.3216803
-8,-5,-30,-9,8,14,-2,-3,1652970147.3216803
3,6,24,36,-21,-14,-1,-1,1652970147.3406296
-4,1,17,-11,23,17,-9,-4,1652970147.3406296
0,4,13,16,-19,-34,-1,-2,1652970147.347611
-1,-1,-9,-4,10,21,-1,-1,1652970147.347611
-1,-2,-14,6,13,14,0,2,1652970147.3555894
-1,-4,14,29,4,8,5,-7,1652970147.3555894
12,0,-2,-18,-20,-14,2,2,1652970147.362571
-16,-15,-4,-73,-15,-12,-3,3,1652970147.362571
-9,-2,-25,-12,-29,0,-1,-10,1652970147.3775308
16,18,-2,15,14,1,8,10,1652970147.3775308
6,3,10,7,11,20,11,8,1652970147.3894987
6,21,14,23,-9,-15,-11,13,1652970147.3894987
-15,-34,3,4,51,7,4,-26,1652970147.3974774
-8,-4,-27,17,-30,3,-7,-10,1652970147.3974774
-2,1,-17,-25,-63,9,-4,0,1652970147.404459
-2,1,-11,-20,-1,-37,10,4,1652970147.404459
-4,-3,22,27,37,11,-6,3,1652970147.4273977
1,0,-14,-53,21,-3,-1,1,1652970147.4273977
11,-1,20,50,29,-19,-4,-1,1652970147.4273977
0,8,6,40,-10,18,1,-4,1652970147.4273977
9,8,1,-6,-19,-1,-13,1,1652970147.4413602
-5,-9,-6,0,18,-3,1,-2,1652970147.4473438
3,38,-26,-34,-7,11,-1,-6,1652970147.4473438
-19,-35,22,-7,10,8,3,4,1652970147.4473438
26,34,-9,20,-12,-3,5,8,1652970147.4553227
11,-5,-21,-16,-9,18,5,-11,1652970147.4553227
-18,-1,16,-18,-4,-25,-16,8,1652970147.4623044
18,0,-2,44,10,2,0,18,1652970147.4623044
-5,11,-31,-43,-24,-3,-9,-4,1652970147.5151637
1,-10,16,-2,-10,-7,4,-3,1652970147.5151637
-3,2,20,43,77,11,10,-6,1652970147.5151637
5,4,2,-15,-78,-28,-6,-5,1652970147.5151637
-18,-20,-25,-25,11,-16,-5,3,1652970147.5311322
19,27,33,40,80,32,-2,0,1652970147.5311322
-6,-20,-8,-29,-1,1,2,0,1652970147.5311322
-8,-1,14,51,97,17,-3,-7,1652970147.532121
10,6,10,6,-92,19,7,17,1652970147.532121
-22,1,-25,42,-42,-50,-35,-29,1652970147.532121
-8,-24,17,-1,9,10,13,32,1652970147.532121
18,10,-24,-44,-36,-2,-1,-8,1652970147.532121
-22,-42,-31,-7,30,-3,-1,0,1652970147.5470812
-7,-13,68,17,2,7,9,-9,1652970147.5470812
-16,-23,-8,24,0,14,-20,-60,1652970147.5470812
21,21,-6,-16,-28,7,11,27,1652970147.5470812
13,6,-15,-25,45,45,9,9,1652970147.5992367
-17,-20,14,-10,-14,-44,-7,-25,1652970147.5992367
11,25,1,-8,-25,7,-1,22,1652970147.6012313
-22,-21,7,41,35,4,-1,-8,1652970147.6012313
-11,-3,31,-16,-6,-6,-9,-30,1652970147.6012313
-1,-19,-48,-47,-16,18,9,31,1652970147.6012313
-11,-37,-16,0,16,8,1,-16,1652970147.6012313
6,37,36,45,-20,1,0,-5,1652970147.6012313
4,-28,-14,-1,-3,-13,-1,8,1652970147.6012313
0,36,8,19,-2,3,-7,-9,1652970147.6012313
2,-6,11,-28,-23,-6,-5,12,1652970147.6012313
-15,19,-18,-29,14,38,-7,-6,1652970147.6012313
22,5,60,49,-16,6,-11,5,1652970147.6221752
-10,-22,-37,-23,-16,49,29,-4,1652970147.6221752
-19,-22,15,16,-7,36,2,-15,1652970147.6658342
38,39,-14,-18,32,34,7,15,1652970147.6658342
-2,40,-1,-4,16,3,4,3,1652970147.6908193
9,-24,-16,-33,9,-3,-32,2,1652970147.6908193
13,30,-30,2,-52,-44,13,21,1652970147.6908193
-32,-31,10,9,39,-6,7,-23,1652970147.6908193
-10,-22,14,11,-23,-60,0,-18,1652970147.6908193
5,6,-15,-27,-12,32,10,1,1652970147.6908193
5,30,19,22,21,2,6,14,1652970147.6908193
3,2,-6,-28,-39,-55,-10,-3,1652970147.6908193
3,4,-17,-7,14,5,3,20,1652970147.6927714
-11,-14,-20,-10,-7,-57,-4,-15,1652970147.6927714
-2,-13,11,37,10,-24,-11,-9,1652970147.6927714
7,8,-1,-27,-36,-15,-1,5,1652970147.6927714
2,-3,22,4,20,-34,2,-12,1652970147.7187426
-3,37,44,26,-11,-29,3,8,1652970147.7187426
8,-8,-41,-24,13,-8,1,1,1652970147.7187426
-7,-32,4,24,0,-26,-16,-1,1652970147.7187426
-14,-21,0,-9,-8,-5,2,-16,1652970147.7277074
12,-12,-9,-8,40,2,8,15,1652970147.7297056
2,7,12,-16,-65,-29,-22,-1,1652970147.7306988
-12,-38,-33,5,5,-13,22,-6,1652970147.7306988
-9,17,9,15,-8,7,-10,-14,1652970147.7386777
19,30,4,-16,5,-14,5,25,1652970147.7386777
1,17,-12,-14,11,16,-7,9,1652970147.7456565
0,-5,18,17,-8,-35,-9,2,1652970147.7456565
-13,-8,-10,12,-49,1,-11,-6,1652970147.7585912
-4,0,-4,13,29,1,4,13,1652970147.7585912
-8,-45,-39,-38,16,-11,3,-15,1652970147.7656045
-5,-11,-11,-14,7,20,-5,-4,1652970147.7656045
-7,37,16,-26,-22,-15,10,6,1652970147.779536
11,24,61,59,25,17,-3,-9,1652970147.779536
14,-8,-15,-6,-13,8,0,-3,1652970147.7815611
-8,21,11,16,29,-8,-2,-12,1652970147.7815611
2,-5,-18,-13,-4,-3,8,8,1652970147.8025053
-22,-43,-75,-42,-54,-32,-17,-12,1652970147.808458
6,14,59,17,9,-57,4,-7,1652970147.808458
-15,5,42,30,20,-89,1,3,1652970147.808458
28,-6,-61,-18,14,-59,2,4,1652970147.8164706
4,13,12,-40,-15,-26,-10,17,1652970147.8164706
-5,-27,-10,29,9,18,25,3,1652970147.824447
-9,-2,-16,-14,5,36,-3,-12,1652970147.824447
-12,-13,21,15,-10,15,-18,-32,1652970147.8394074
3,-14,-22,-22,-6,0,3,35,1652970147.8394074
-4,-13,-13,6,-3,12,-5,-13,1652970147.8394074
11,41,3,-5,-11,25,-3,6,1652970147.8394074
-7,-10,-17,-17,27,29,4,2,1652970147.8643403
-6,5,-6,38,-3,48,10,-1,1652970147.8643403
0,19,12,-59,-8,19,-7,0,1652970147.8643403
-3,-16,-19,11,-24,51,2,5,1652970147.8643403
9,0,13,16,21,55,-3,1,1652970147.87232
-11,3,-11,-29,-10,24,-4,-13,1652970147.87232
2,28,9,18,0,-7,2,5,1652970147.8872786
8,9,-7,-8,-3,35,-4,-5,1652970147.8872786
1,7,-7,-14,22,25,3,12,1652970147.89825
-6,-17,0,-9,-36,11,2,-10,1652970147.89825
2,-7,19,30,16,-14,-7,0,1652970147.9062285
-3,-7,-29,-4,-5,-13,-5,-6,1652970147.9062285
-1,2,40,18,18,10,4,6,1652970147.922154
1,3,-18,-37,-9,-27,-4,-4,1652970147.922154
2,8,-19,-13,4,-4,-4,-3,1652970147.922154
2,-1,25,6,32,1,0,-5,1652970147.922154
-4,1,-18,-29,-12,0,4,7,1652970147.9341211
-3,4,42,84,7,14,2,-7,1652970147.9341211
0,7,-7,-27,-12,-5,-6,0,1652970147.948091
5,-1,25,41,17,34,4,2,1652970147.948091
-2,-2,-12,-32,-7,-46,-1,8,1652970147.956095
1,-13,-15,4,0,12,-1,-6,1652970147.956095
-3,-12,13,29,-2,3,2,-2,1652970147.9630785
-1,-13,-6,-20,-29,-6,-3,1,1652970147.9630785
12,20,1,14,15,11,-2,-4,1652970147.9780478
-7,-8,4,-20,24,-3,5,-1,1652970147.9780478
2,-2,-7,4,11,-2,-1,3,1652970147.9839902
-1,-14,-3,-13,-9,-30,-3,-3,1652970147.986016
-2,-38,-17,-19,-1,-8,-2,-2,1652970147.9979517
-4,-44,5,42,3,-17,-4,-7,1652970147.9979517
-5,10,-2,-1,1,11,2,0,1652970148.0129461
2,30,6,3,-2,6,1,1,1652970148.0129461
-2,50,1,9,22,-25,-4,-1,1652970148.0209236
0,37,-1,-4,-38,17,-3,0,1652970148.0209236
0,8,-17,-11,23,48,4,1,1652970148.027904
1,10,18,27,-14,-5,1,-2,1652970148.027904
2,4,4,6,-2,-7,-7,1,1652970148.0419464
-3,0,-3,-11,10,-20,-4,-6,1652970148.0419464
-2,-7,-16,-23,-18,-3,-2,-1,1652970148.0478976
0,-10,-12,-8,-5,0,1,0,1652970148.0478976
-4,-10,8,8,4,-4,4,2,1652970148.055909
7,-10,5,2,8,-43,0,0,1652970148.055909
-1,19,8,-1,-6,-15,-4,0,1652970148.0628886
-3,-20,-12,-12,17,-27,7,-2,1652970148.0628886
-7,-19,-10,-20,-21,-13,2,-1,1652970148.0778103
6,33,-13,10,6,50,3,0,1652970148.0778103
-3,-9,2,-41,-3,-1,-3,-3,1652970148.085921
-1,-2,12,13,-15,40,-7,-1,1652970148.085921
1,-9,15,31,-1,57,0,-1,1652970148.104872
-5,-11,-15,-34,4,58,-3,-2,1652970148.104872
3,2,36,36,-7,69,3,2,1652970148.104872
0,-3,-12,-9,-10,10,-3,-1,1652970148.104872
-4,-7,-9,-10,-5,19,1,-3,1652970148.1257799
-5,-6,-12,0,4,14,-1,-3,1652970148.1257799
7,4,26,64,1,34,-1,-1,1652970148.1278052
-5,-11,-12,-18,0,30,-1,1,1652970148.1278052
13,25,4,11,1,-2,2,2,1652970148.1357837
-9,-10,-6,-27,-33,0,4,-1,1652970148.1357837
1,-5,-10,-16,-22,-48,-7,-2,1652970148.1427653
-1,-5,-2,2,10,-37,-1,5,1652970148.1427653
-2,-7,-5,-6,0,-64,0,3,1652970148.1627154
-1,-4,2,4,19,-41,5,6,1652970148.1627154
-8,-7,-7,-7,2,-38,-3,-7,1652970148.1627154
0,-3,2,17,7,-22,-1,-7,1652970148.1627154
1,9,-8,-20,7,-10,-6,12,1652970148.1856873
-2,2,12,-5,-5,-55,6,0,1652970148.1856873
1,-1,1,2,-20,-71,1,6,1652970148.1856873
-2,-10,-17,-21,-16,-71,-4,-7,1652970148.1856873
-3,-6,-9,18,-5,-2,-4,-8,1652970148.1986206
2,6,14,13,5,1,1,-2,1652970148.1986206
-3,0,-10,0,9,6,2,-1,1652970148.212617
-2,4,-4,11,14,7,-2,-5,1652970148.212617
0,-3,-15,-4,-6,-21,2,-1,1652970148.2205942
2,5,20,-5,10,-17,-2,4,1652970148.2205942
-2,2,3,-9,6,9,-6,-6,1652970148.2205942
1,2,10,-6,-3,-3,1,2,1652970148.2205942
-3,-6,4,39,-24,-9,1,0,1652970148.2438982
-1,-3,-4,-17,24,-22,-2,-3,1652970148.2438982
-2,0,-11,6,19,-11,-2,-3,1652970148.2438982
-2,1,-4,-8,-32,5,-2,0,1652970148.2438982
-9,-14,-1,7,42,-4,0,-3,1652970148.2588563
8,14,-6,-6,-11,-41,-2,-1,1652970148.2628155
3,3,-10,-25,-44,-55,1,3,1652970148.2698276
7,19,9,1,30,6,3,7,1652970148.2698276
1,11,15,24,-12,30,3,-5,1652970148.291804
-16,-12,-12,2,-10,28,-9,-5,1652970148.2938
-6,-21,-3,33,-2,21,-1,-1,1652970148.2938
1,-14,-11,-42,-21,7,-7,-4,1652970148.2938
5,34,2,-25,0,33,-3,0,1652970148.305767
3,0,5,5,-3,22,-3,17,1652970148.305767
-9,-2,-9,-13,-3,4,13,-19,1652970148.310723
-4,-9,8,34,8,17,-4,-4,1652970148.3127484
-3,-19,1,4,2,19,0,-1,1652970148.318733
-3,-6,-5,-28,-10,12,-4,-2,1652970148.3207266
4,22,2,1,11,9,-4,1,1652970148.32668
0,1,-4,3,27,15,7,8,1652970148.3287058
0,1,5,-8,-11,5,2,-2,1652970148.3426368
-2,-5,3,28,-12,3,3,-1,1652970148.3426368
1,-6,-3,-25,49,23,-1,1,1652970148.3446627
-5,-19,-3,33,-18,-4,-3,-8,1652970148.3446627
-11,0,3,-43,-37,13,-5,-3,1652970148.3991022
7,-8,-2,21,20,8,-6,-11,1652970148.3991022
0,17,1,-10,-10,-1,13,19,1652970148.3991022
1,-8,-19,-50,-29,7,-5,-5,1652970148.3991022
-1,0,22,62,78,25,11,8,1652970148.3991022
-12,-5,7,15,-21,9,-9,-1,1652970148.3991022
2,-3,6,22,-46,0,-6,-5,1652970148.3991022
4,2,-9,-45,-10,-9,-2,0,1652970148.3991022
3,-12,-13,-22,-25,-48,-19,-8,1652970148.4000993
4,9,17,23,23,1,19,-3,1652970148.4000993
0,-3,4,10,33,7,-8,4,1652970148.4000993
0,1,-5,-3,-29,9,9,4,1652970148.4000993
-3,-13,-12,-25,3,-1,-2,-6,1652970148.4741707
-1,-4,-2,29,5,0,-5,-2,1652970148.4741707
-2,-1,-4,-21,-16,12,0,0,1652970148.4741707
-4,8,2,27,14,8,-8,-3,1652970148.4741707
-4,3,-5,-7,27,11,4,0,1652970148.4741707
10,12,-9,-12,-22,3,-2,2,1652970148.4741707
0,-23,-15,-41,-23,8,5,3,1652970148.4741707
7,3,17,14,12,-21,-4,0,1652970148.4741707
-8,15,8,4,20,19,1,-6,1652970148.4741707
-5,-14,-8,9,-31,-4,1,-1,1652970148.4741707
4,14,13,-11,26,1,-3,-4,1652970148.4762518
-11,-23,-14,1,-19,30,12,6,1652970148.4762518
8,14,-5,2,-12,-26,-10,5,1652970148.5370927
1,6,23,22,21,-13,-5,-5,1652970148.5370927
1,4,3,13,17,4,-5,3,1652970148.5370927
-3,3,-11,-21,-9,-17,-1,-1,1652970148.5370927
0,-16,-10,-9,-25,22,12,-2,1652970148.5461092
-3,7,-15,-39,8,-7,-13,-4,1652970148.5490916
0,5,13,24,-11,-1,-1,-3,1652970148.5490916
-4,-2,17,23,33,-5,-9,-6,1652970148.5490916
4,-4,-3,-6,-32,-6,8,-2,1652970148.5490916
3,5,-17,-41,-2,11,2,2,1652970148.5490916
-7,-14,-14,19,2,-6,4,-1,1652970148.5490916
2,8,4,2,-2,-4,1,-2,1652970148.5490916
3,-1,-3,17,2,-18,-2,4,1652970148.550062
-2,-3,2,-54,6,-4,-3,-3,1652970148.550062
-5,-5,2,-30,-4,20,5,-3,1652970148.550062
-3,8,1,33,18,-12,-9,1,1652970148.550062
4,3,5,-9,-9,-10,-10,-3,1652970148.567056
1,-8,-9,53,27,20,4,1,1652970148.567056
2,-11,-18,-8,-18,-12,-7,-4,1652970148.567056
-4,9,1,-20,-6,-6,-2,-2,1652970148.567056
-6,-11,11,9,3,4,-3,-1,1652970148.5820475
0,-3,2,-19,-3,8,2,1,1652970148.5820475
-4,-1,12,24,18,-56,-15,0,1652970148.5820475
2,0,-10,-14,21,11,-2,-3,1652970148.5820475
1,-1,-2,-4,12,-17,-6,-3,1652970148.6009965
-2,-1,-2,4,-14,-19,1,15,1652970148.6009965
-3,-2,-1,17,-14,0,0,-27,1652970148.6069777
3,1,3,-19,-34,2,3,0,1652970148.6089408
0,-2,-14,-28,0,3,0,0,1652970148.6611307
2,-1,0,16,10,14,2,-2,1652970148.6611307
-1,3,15,37,9,-2,0,-2,1652970148.6731653
0,0,-4,-4,-6,0,1,-12,1652970148.6731653
-4,-4,7,10,-15,14,6,20,1652970148.6731653
7,1,-5,-13,6,-3,3,1,1652970148.6731653
-2,1,-8,-15,-4,-11,-4,6,1652970148.6731653
-5,-8,-10,-13,-4,-6,-4,-8,1652970148.6731653
1,1,-8,-20,-15,1,-1,-5,1652970148.6731653
-3,-1,6,9,5,-14,1,-2,1652970148.6731653
0,1,6,13,-18,-9,-3,-2,1652970148.6731653
1,3,6,21,18,8,3,3,1652970148.6731653
-4,-6,-11,-5,5,-5,-2,-13,1652970148.6811068
-5,-2,-4,-1,-11,26,0,3,1652970148.6811068
2,-2,-12,-52,-28,20,-4,26,1652970148.6860943
0,1,-3,-19,-32,-7,2,-11,1652970148.6860943
3,2,19,40,20,-18,-2,3,1652970148.7010565
-6,-1,2,-1,12,-8,-7,-15,1652970148.7010565
0,-3,-14,-5,13,0,2,2,1652970148.70305
2,1,0,10,-4,3,2,12,1652970148.70305
-3,-10,-8,-23,-3,15,2,-11,1652970148.721965
12,10,-15,-29,-9,-8,-3,-2,1652970148.721965
-13,-4,12,49,3,0,2,9,1652970148.721965
-2,2,23,-30,7,-4,0,-10,1652970148.721965
-4,-1,-6,11,-14,8,-1,-6,1652970148.736041
-6,-5,0,42,9,-1,0,1,1652970148.736041
3,-3,-17,-33,-2,12,6,-7,1652970148.7440197
2,4,-11,27,15,-9,-11,5,1652970148.7440197
3,-1,7,-31,-8,-15,-2,5,1652970148.761984
-4,-7,-7,-21,-16,-12,-5,-2,1652970148.761984
1,-1,-3,12,9,8,2,-1,1652970148.769957
-3,-2,-3,0,-6,7,-4,1,1652970148.769957
0,-2,-1,17,5,-1,5,-4,1652970148.7849386
-4,0,-1,5,2,6,1,-1,1652970148.7849386
-5,-1,1,-18,14,9,2,-7,1652970148.7849386
1,-1,-4,0,-10,-4,6,-2,1652970148.7849386
3,3,-3,10,16,4,4,15,1652970148.8008733
-1,2,7,-9,-48,-3,-5,-11,1652970148.8008733
1,-3,4,3,34,0,-1,0,1652970148.807886
3,-1,-3,-1,13,10,1,13,1652970148.8118415
-2,-1,-11,-25,-6,-2,1,-12,1652970148.8198545
-4,-6,-4,-20,-15,-7,0,4,1652970148.8198545
3,7,16,46,42,-1,-1,-9,1652970148.8268366
-2,-3,1,22,6,-1,-1,7,1652970148.8268366
3,3,25,11,9,-8,-8,2,1652970148.841795
1,-3,-11,-23,-7,23,11,-3,1652970148.841795
10,2,0,-32,-19,2,-1,1,1652970148.841795
-15,5,33,24,3,-11,-5,-3,1652970148.841795
3,1,-7,-14,-13,12,-9,-1,1652970148.8557575
-18,-14,-3,-12,-2,-1,14,-5,1652970148.8557575
10,1,-11,13,7,14,4,23,1652970148.8676925
1,4,-16,-29,-26,-9,6,-28,1652970148.8676925
-7,-1,-7,31,8,10,0,-4,1652970148.8804746
7,1,6,-23,-15,-14,-12,0,1652970148.8804746
-11,-5,7,25,10,-6,-1,-8,1652970148.8904145
7,4,-12,-16,21,9,4,7,1652970148.8904145
-1,0,-21,-43,-25,-13,3,3,1652970148.9421344
3,5,21,11,-6,7,0,2,1652970148.9421344
-2,7,23,30,10,-12,-8,-1,1652970148.9421344
-1,-26,-1,14,-24,-32,-8,-3,1652970148.9421344
-17,-26,-18,-50,12,30,3,-7,1652970148.9421344
31,69,21,25,-15,-22,8,16,1652970148.9421344
-1,-36,-21,15,28,45,9,-5,1652970148.9421344
9,56,64,76,29,-4,-14,5,1652970148.9421344
-30,-46,-14,12,-32,-14,-4,-7,1652970148.9431
-25,-97,-13,-2,-1,1,-10,-10,1652970148.9431
18,54,-21,-47,-22,3,0,-1,1652970148.9481194
29,11,-37,-23,-26,-40,3,7,1652970148.9481194
17,71,15,5,4,4,5,12,1652970148.9660757
-1,-1,-11,-18,-1,6,-5,-4,1652970148.9660757
-11,-1,-4,-15,-34,-20,5,-7,1652970148.9660757
-13,-42,-21,-39,29,43,10,5,1652970148.9660757
-3,2,22,33,2,-30,-18,-11,1652970148.9836462
-17,-43,-7,13,-1,-12,4,-2,1652970148.9836462
-17,-1,13,-2,17,21,-17,-4,1652970148.9866352
10,3,13,13,-15,4,2,0,1652970148.9866352
-2,-8,1,1,-5,3,0,-1,1652970149.0015988
-12,-15,-17,14,21,10,-4,4,1652970149.0015988
23,13,11,2,10,-19,0,-9,1652970149.006585
-26,21,-39,-64,-46,32,7,-6,1652970149.0095766
29,4,52,94,37,41,0,8,1652970149.0275292
-15,13,10,21,13,-8,-5,1,1652970149.0275292
-15,6,-8,-24,-28,-7,2,2,1652970149.0365024
22,6,-20,-9,13,11,1,5,1652970149.0365024
0,15,-14,13,24,-14,0,-8,1652970149.0434515
12,22,22,-5,-43,-12,-7,-7,1652970149.0434515
-3,-36,5,-7,14,7,0,5,1652970149.0504663
-8,1,-14,-9,-10,8,0,-3,1652970149.0524592
-2,-41,-18,-46,-35,-11,-2,3,1652970149.060438
-20,7,17,36,32,14,-4,-2,1652970149.060438
50,45,-23,-29,-15,-24,-8,-6,1652970149.0684142
-27,6,9,12,-15,-28,-3,-16,1652970149.0684142
0,14,-16,-11,15,14,16,13,1652970149.0873666
1,56,-20,-26,8,28,10,12,1652970149.0873666
-20,-27,-7,-6,-3,5,-4,-9,1652970149.0873666
13,-26,22,23,22,-14,6,5,1652970149.0873666
13,6,2,24,-5,-29,-11,-7,1652970149.1093085
10,8,17,-6,2,3,3,2,1652970149.1093085
-28,-29,-7,-11,1,16,6,24,1652970149.1093085
9,-3,-5,15,-1,-42,-1,2,1652970149.1093085
-5,-17,26,29,-7,-18,-2,5,1652970149.123273
-1,-52,-32,-28,-12,8,12,-7,1652970149.1252651
24,58,-3,-17,-3,-6,-19,-11,1652970149.1252651
-14,23,-19,-36,17,43,-2,4,1652970149.1252651
-7,-12,-14,-37,-33,4,1,-3,1652970149.1432197
7,20,-2,34,16,17,-2,-7,1652970149.1432197
-44,-70,1,-4,-29,22,5,-14,1652970149.1442156
11,-14,-3,5,-14,-9,-1,17,1652970149.1442156
1,6,-17,-24,8,7,-12,5,1652970149.1661587
-2,-15,-5,-8,-6,-8,-4,-34,1652970149.1661587
-5,-7,2,19,12,-6,7,34,1652970149.1661587
4,13,1,7,14,29,-4,-1,1652970149.1661587
-5,-14,9,-5,6,1,6,-12,1652970149.1811154
-12,-34,-11,11,47,-56,-9,-29,1652970149.1851063
28,39,-3,7,-37,18,-4,3,1652970149.193086
14,-44,19,9,-10,-21,-19,30,1652970149.193086
3,31,1,-20,6,37,5,12,1652970149.2000668
9,37,-17,-22,20,-3,-5,7,1652970149.2000668
-15,-11,-28,-2,-6,-29,8,-30,1652970149.2080443
-14,-9,-8,-3,5,-19,-4,-13,1652970149.2080443
3,-20,42,26,10,33,-6,-9,1652970149.2269957
-1,-2,1,-6,-10,-25,1,6,1652970149.2269957
3,17,12,40,14,-7,-1,-3,1652970149.2319796
-9,-29,-16,-6,-16,1,-3,-8,1652970149.2319796
19,11,-30,-31,-43,-20,2,15,1652970149.2399585
14,9,-7,-14,-5,-9,3,-8,1652970149.2399585
0,6,10,-9,-3,-13,-3,1,1652970149.24991
-19,-15,11,-17,-5,-15,7,-1,1652970149.24991
-20,-11,-16,26,-8,-10,-1,-11,1652970149.3042858
14,-5,3,10,-2,-12,-6,23,1652970149.3083088
14,-19,-9,-45,-2,-28,4,-2,1652970149.3083088
9,32,0,-3,-6,-8,5,-5,1652970149.3083088
-8,-2,8,13,2,-77,-3,-7,1652970149.3083088
6,22,19,21,1,-24,-2,12,1652970149.3083088
-17,-23,17,15,-1,-22,1,-5,1652970149.3083088
-5,-8,-23,-18,3,15,4,-10,1652970149.3083088
9,10,21,24,19,-34,-1,3,1652970149.3083088
-10,-7,11,12,-8,-19,-2,0,1652970149.3083088
-2,-1,4,0,-3,-50,-1,-1,1652970149.3276672
2,3,3,-7,10,-5,-1,1,1652970149.3276672
-10,-6,-31,-17,6,5,2,-2,1652970149.33568
-6,-10,-11,-3,-15,28,0,3,1652970149.33568
3,8,11,0,-8,29,0,2,1652970149.33568
1,7,17,28,28,12,-2,-4,1652970149.33568
-3,-4,-2,33,25,29,5,-2,1652970149.343627
-5,-9,-9,-43,-4,30,-2,1,1652970149.343627
8,19,-8,3,-40,-12,-6,1,1652970149.351641
-6,-4,7,0,12,-4,-1,-13,1652970149.351641
1,-17,-1,9,9,-31,1,4,1652970149.3586211
3,27,-3,-13,2,-60,-2,4,1652970149.3586211
-5,-25,13,-2,-1,-26,5,0,1652970149.3665652
29,20,3,-6,-11,-12,-4,15,1652970149.3665652
9,31,-8,-20,3,34,8,-5,1652970149.384885
-4,-3,3,5,-6,20,-6,2,1652970149.384885
-4,10,-15,5,17,18,-3,-1,1652970149.3918653
-18,-11,5,26,5,27,-3,-8,1652970149.3918653
-2,-4,-13,-39,-28,52,4,1,1652970149.4078271
1,-2,14,12,0,38,-3,0,1652970149.4078271
-3,-1,7,11,5,24,1,-1,1652970149.4078271
0,-4,11,11,15,14,-1,0,1652970149.4078271
-4,4,-2,3,-21,-11,-4,-3,1652970149.4207904
-1,-8,-2,4,6,11,3,-2,1652970149.4207904
-9,-19,5,10,2,21,-3,-2,1652970149.4347203
-8,8,-18,-14,-2,2,-3,-3,1652970149.4347203
2,4,5,2,-4,13,1,2,1652970149.4427297
-8,-12,6,-7,0,8,-3,-1,1652970149.4427297
4,-2,-10,-11,11,10,-1,-5,1652970149.4427297
3,-15,7,3,-4,-16,0,6,1652970149.4427297
-2,12,-4,-19,1,-12,-3,-1,1652970149.464671
2,5,-3,7,2,2,0,2,1652970149.464671
-5,-1,15,17,19,-1,-1,1,1652970149.464671
-8,-7,-5,-5,-21,3,1,-10,1652970149.464671
-2,-8,-8,-27,-24,-2,-4,1,1652970149.483139
-4,-18,-15,18,16,18,0,-7,1652970149.483139
-1,4,21,31,12,-29,-5,-2,1652970149.4921124
-1,9,22,-7,-10,-23,1,-1,1652970149.4921124
-1,-3,1,27,-1,-27,-5,-2,1652970149.508069
2,3,-18,-24,1,13,0,2,1652970149.508069
-6,-8,-18,-27,-14,10,-2,1,1652970149.508069
0,-1,8,44,9,35,1,-3,1652970149.508069
-3,-4,9,8,7,10,-1,-3,1652970149.5279818
3,3,-12,-5,9,1,2,3,1652970149.5279818
2,7,11,6,-2,6,3,0,1652970149.5339665
-3,-16,-6,-27,-12,-10,0,1,1652970149.5339665
-7,-5,-33,-29,1,-12,-7,-5,1652970149.5449364
5,11,53,18,-2,-21,0,-2,1652970149.5449364
1,2,-1,-7,-2,-12,6,0,1652970149.5449364
-4,-5,-42,-26,1,4,2,-1,1652970149.5449364
0,2,34,43,21,1,0,-1,1652970149.55993
0,-3,-16,-28,-6,9,1,0,1652970149.55993
-2,-1,-7,-26,-7,7,-3,1,1652970149.567909
-5,-2,0,47,4,8,-2,-4,1652970149.567909
-7,-16,-23,-53,-1,-1,-1,-2,1652970149.5868585
11,-1,-6,25,-2,0,0,0,1652970149.5868585
-1,14,33,7,-8,5,-1,0,1652970149.5868585
2,5,16,1,-27,-19,-1,0,1652970149.5868585
-6,-1,2,23,27,18,-1,-2,1652970149.5988252
0,3,4,-22,12,20,5,1,1652970149.5988252
0,-11,-41,-40,-7,-18,-6,-3,1652970149.6087983
3,5,-2,1,9,8,0,0,1652970149.6087983
0,1,16,13,-19,-42,-3,-1,1652970149.6247554
-4,-5,-14,-18,-13,-10,-2,-2,1652970149.6247554
-1,-7,-9,19,3,-21,0,-2,1652970149.6247554
-3,-4,-9,-10,9,17,-1,-3,1652970149.6247554
0,-1,4,-49,-26,-29,-2,0,1652970149.6476996
0,2,-4,36,8,-32,1,0,1652970149.6476996
-1,-3,3,1,-17,-42,-2,-1,1652970149.6506932
-2,-2,-6,-1,17,-85,-1,-3,1652970149.6506932
0,-4,-6,3,-5,-26,2,0,1652970149.6576724
-1,-1,-11,-15,2,-23,-5,-1,1652970149.6576724
1,2,-1,6,-17,88,1,0,1652970149.6737206
-4,-2,-2,-19,23,60,-2,-3,1652970149.6737206
-1,1,10,43,3,80,-2,-2,1652970149.6847496
-1,-1,5,1,-8,47,2,0,1652970149.6847496
-1,-1,-3,9,10,24,-2,-2,1652970149.6917093
-3,-8,-10,-23,-8,27,0,-1,1652970149.6917093
-5,-4,-10,-26,2,14,0,-1,1652970149.7076662
8,12,19,40,32,27,0,-1,1652970149.7076662
2,16,-5,-7,-1,36,-2,1,1652970149.7076662
-1,3,3,-11,-42,10,-1,0,1652970149.7076662
2,-1,0,2,-6,15,0,-1,1652970149.72663
-9,-14,-13,-8,-20,-26,-3,-3,1652970149.72663
0,-16,-10,-18,3,35,1,1,1652970149.7345614
-3,5,17,17,28,33,-1,-2,1652970149.7345614
2,3,-6,-26,-5,31,-2,-1,1652970149.76014
-2,1,-8,-4,4,6,-1,-3,1652970149.76014
1,0,16,34,-27,-43,2,-1,1652970149.7691581
-2,-2,-3,2,-6,-71,-2,0,1652970149.7691581
2,1,0,6,-23,-37,1,0,1652970149.7691581
-2,-3,2,7,8,-67,-1,-2,1652970149.7691581
-4,-2,-7,-26,3,-72,-1,-1,1652970149.7691581
2,-3,-1,8,2,-27,-3,1,1652970149.7691581
2,6,-8,-17,11,-40,1,-1,1652970149.776129
1,2,4,13,-11,-8,-9,-1,1652970149.776129
2,-1,15,10,11,-11,-1,12,1652970149.7920866
0,-1,-10,4,9,3,3,-11,1652970149.7920866
-5,-7,-14,-18,-3,-12,-5,-5,1652970149.8070478
2,2,14,-5,-15,63,4,2,1652970149.8070478
-4,1,-5,4,12,122,-3,0,1652970149.810047
-5,-3,0,-10,-13,69,2,2,1652970149.810047
-1,-7,-8,-3,31,24,0,-2,1652970149.8259966
-8,-27,-1,7,-35,-23,-1,-2,1652970149.8259966
3,13,31,42,19,-77,1,-8,1652970149.8259966
6,6,5,29,-1,-70,-2,7,1652970149.8259966
0,5,8,19,15,-81,4,1,1652970149.8399255
-2,-4,-13,-32,-26,-92,-1,0,1652970149.8399255
-2,-13,-3,-7,50,-68,-2,-1,1652970149.850932
-5,0,-8,27,-21,-71,-3,-3,1652970149.850932
-2,-4,-2,-18,15,-33,0,2,1652970149.8638947
0,5,-10,-33,-10,-21,-5,0,1652970149.8668904
-2,-3,-13,-25,-33,7,-1,-4,1652970149.8668904
-2,-2,6,-6,7,25,3,1,1652970149.8668904
4,4,9,58,21,37,1,3,1652970149.8858342
-2,5,3,-22,-10,30,2,0,1652970149.8858342
-2,2,-11,3,-1,19,-1,-2,1652970149.8888268
-1,-10,2,-19,4,25,-1,1,1652970149.8888268
0,-7,2,1,-31,25,-6,-1,1652970149.9057846
-2,9,0,4,9,30,-3,-2,1652970149.9057846
-1,-3,-8,17,6,11,1,0,1652970149.9087763
3,1,-4,-26,-8,14,-2,-1,1652970149.9087763
1,-6,0,-6,-2,28,-1,1,1652970149.9679606
0,7,-1,5,29,30,3,2,1652970149.9679606
-5,-14,-18,-33,-10,1,1,14,1652970149.990956
-1,8,0,5,-19,8,-3,-18,1652970149.990956
-1,9,7,9,29,9,1,-1,1652970149.990956
-2,-4,2,10,-5,6,0,-1,1652970149.990956
-6,-3,6,-20,-3,5,-1,0,1652970149.990956
-6,-1,-2,-17,2,-3,-3,5,1652970149.990956
13,-6,-3,26,8,3,7,-3,1652970149.990956
1,9,4,-15,-37,-10,-9,3,1652970149.990956
18,19,-8,11,17,4,-5,-4,1652970149.990956
-10,9,-10,-28,-16,-7,-7,-7,1652970149.990956
-11,-7,14,-6,14,4,6,5,1652970149.9928968
-3,-12,2,10,-12,5,4,1,1652970149.9928968
-1,-5,6,1,-16,-3,5,-4,1652970150.0048969
5,-5,11,-2,7,-1,-4,3,1652970150.0048969
0,3,-11,-8,-15,-1,-5,-2,1652970150.0454295
-5,-5,-7,-3,16,2,0,-3,1652970150.0454295
-1,5,-4,-8,-13,-6,-8,-5,1652970150.0454295
1,-4,-16,-3,38,7,5,1,1652970150.0454295
-6,3,16,21,-16,-9,-5,-3,1652970150.0713665
2,3,3,-10,-11,-8,1,-1,1652970150.0713665
-1,-7,-5,22,20,-4,1,-3,1652970150.0713665
-1,5,7,0,0,10,3,5,1652970150.0713665
1,-5,-14,-13,-6,11,-8,-4,1652970150.0713665
1,5,-2,-45,-27,7,-2,-4,1652970150.0713665
-1,-3,-3,18,-2,4,-2,10,1652970150.0713665
-11,-3,-5,9,1,3,-4,-21,1652970150.0713665
11,4,-7,-17,0,2,4,7,1652970150.086576
-2,-2,6,11,21,0,2,-7,1652970150.086576
-8,-16,-20,-31,-31,8,8,4,1652970150.086576
1,-12,-3,11,-2,-2,8,15,1652970150.086576
-1,37,23,4,-9,1,-14,-12,1652970150.1015337
0,-10,-8,11,16,8,3,1,1652970150.1015337
-1,11,1,-33,-6,-11,-2,-7,1652970150.1015337
5,0,10,8,18,5,-4,4,1652970150.1015337
-2,-7,-8,20,-18,-6,-4,-1,1652970150.1015337
0,1,-1,16,28,17,-4,0,1652970150.1015337
-2,-5,-16,-27,-12,-28,-10,-3,1652970150.1144989
1,0,29,34,3,-9,-9,0,1652970150.1144989
-2,-6,-3,-30,-20,16,14,1,1652970150.1264668
1,9,6,10,-12,-11,1,2,1652970150.1264668
-2,-4,12,43,44,10,4,-2,1652970150.1264668
4,4,-8,-23,-31,-24,-6,2,1652970150.1264668
-3,-3,-5,7,31,-16,-7,1,1652970150.153394
-6,-7,-15,-22,-10,-1,-3,-10,1652970150.153394
-1,4,9,23,8,7,9,-4,1652970150.153394
5,2,-4,-13,-3,-4,4,2,1652970150.153394
-4,-6,-7,-4,3,17,0,4,1652970150.1683543
0,-3,-4,1,-13,-27,-11,-4,1652970150.1683543
4,3,8,6,-3,-4,-1,18,1652970150.1753356
-3,1,3,5,14,14,8,-3,1652970150.1753356
-8,-10,-11,-22,-1,2,3,6,1652970150.1833153
-2,-10,0,1,16,9,4,-5,1652970150.1833153
13,18,7,8,-15,6,-4,-4,1652970150.188301
-1,-6,-10,-11,-30,34,-2,-5,1652970150.1902955
-4,-10,-8,-14,-9,-1,5,-5,1652970150.2092452
12,18,1,14,23,-19,-21,5,1652970150.2092452
-11,-9,-6,-9,-5,-3,5,-6,1652970150.2092452
-2,-1,-5,-2,2,-24,-4,-17,1652970150.2092452
2,1,2,-1,0,-9,-7,9,1652970150.2311862
-4,-3,6,17,0,14,11,7,1652970150.2311862
-5,-3,-4,-8,-3,8,3,5,1652970150.2311862
0,0,-1,-7,4,-2,-4,0,1652970150.2311862
4,0,0,-3,-11,7,1,6,1652970150.2461462
-11,-3,1,6,3,-15,-6,-38,1652970150.2461462
2,4,-1,1,6,7,9,2,1652970150.2461462
2,-7,-7,-14,-7,-7,-8,8,1652970150.2461462
2,5,2,4,-12,-5,3,3,1652970150.2710798
2,0,-3,-11,-17,11,1,16,1652970150.2710798
-5,-3,2,-2,27,-13,-2,-17,1652970150.2710798
-3,-4,-5,12,-7,6,4,11,1652970150.2730742
-3,-1,1,4,-23,-6,-5,-13,1652970150.2800555
-3,0,-3,-5,11,3,13,-9,1652970150.2800555
0,0,9,3,-20,-11,-7,2,1652970150.2880342
2,2,-7,-40,7,5,4,-5,1652970150.2880342
0,0,5,41,6,-14,-5,19,1652970150.3069837
3,-7,0,2,-4,-2,-8,-15,1652970150.3069837
-2,-4,-8,-3,-2,3,-3,-7,1652970150.3119702
8,22,9,7,13,-35,-14,9,1652970150.3119702
-1,4,1,-11,2,-4,-5,-14,1652970150.328925
-2,0,1,6,1,14,7,5,1652970150.328925
-5,-10,-8,-13,-10,-2,-5,2,1652970150.3309197
-5,-9,-2,1,-5,12,0,-6,1652970150.3309197
-3,-4,-6,-5,-6,11,13,-10,1652970150.3388982
-1,-1,-1,2,-6,-14,-5,13,1652970150.3388982
-3,-1,3,-16,5,0,0,2,1652970150.351864
3,1,-4,37,8,-7,-1,3,1652970150.35685
-1,1,0,-19,24,8,-1,-5,1652970150.3648293
-1,2,2,7,-26,0,2,12,1652970150.3648293
2,0,-19,-47,-13,1,-2,-5,1652970150.3648293
-6,-6,8,40,0,14,6,-7,1652970150.3648293
-1,-2,1,-11,14,-6,1,5,1652970150.3877673
-1,-3,7,11,5,-1,2,0,1652970150.3877673
-3,-3,4,-33,-8,13,-4,-5,1652970150.3877673
1,-8,-8,10,-14,10,-1,-4,1652970150.3877673
-15,-11,0,20,4,-18,-7,8,1652970150.4087117
26,41,-1,-10,13,-8,-18,-14,1652970150.4087117
1,6,-4,18,-8,-15,-13,18,1652970150.415693
6,7,-1,-20,4,7,13,-2,1652970150.415693
-5,-5,-8,-13,-11,5,1,-11,1652970150.4236715
-11,-17,-5,-8,4,4,5,7,1652970150.4236715
1,1,2,16,0,2,0,-6,1652970150.428658
-4,1,10,-3,2,-6,-4,-7,1652970150.428658
0,-7,-5,0,-18,-4,-11,15,1652970150.456585
-4,-7,-16,-36,-3,2,12,5,1652970150.456585
0,-5,-21,5,-1,4,-1,-2,1652970150.456585
-9,-9,-12,-6,37,13,0,3,1652970150.456585
12,11,22,2,-12,-15,-1,-10,1652970150.463565
6,6,27,12,0,-3,-3,6,1652970150.463565
-4,-2,9,1,-17,-7,-1,-4,1652970150.478525
-4,-1,-10,-15,-18,-6,1,-2,1652970150.478525
-1,-2,-29,-23,3,11,0,-8,1652970150.4865036
-3,1,-12,31,51,10,-2,2,1652970150.4865036
0,3,0,29,-11,-12,0,-7,1652970150.4865036
-6,-3,25,21,20,-11,-1,0,1652970150.4865036
1,-4,-9,-12,-4,2,2,8,1652970150.5064502
2,-13,-14,-1,-21,6,1,-6,1652970150.5064502
1,26,21,-6,10,1,1,-6,1652970150.5134318
3,-5,-14,-19,-11,-6,-4,3,1652970150.5134318
-5,-4,-16,-27,-7,1,5,-1,1652970150.5214102
-9,-9,-8,8,-11,2,-1,0,1652970150.5214102
0,-4,18,26,-5,8,1,-3,1652970150.5283916
1,5,3,-2,-4,3,1,6,1652970150.5283916
-1,1,20,7,-2,-7,-6,0,1652970150.5473413
-4,-15,-23,-1,27,12,1,0,1652970150.5473413
-1,-8,-24,-41,16,0,-2,-1,1652970150.548338
-3,10,28,46,-11,7,-3,-3,1652970150.548338
3,3,1,28,2,12,1,-6,1652970150.5692825
0,5,14,-4,-1,-3,1,2,1652970150.5692825
-5,-16,-13,-22,15,14,3,2,1652970150.5712771
-5,-8,-16,22,-43,4,-10,-4,1652970150.5712771
5,16,34,10,37,11,3,-3,1652970150.5842454
-4,1,25,4,-17,-4,2,2,1652970150.5842454
-8,-16,-10,37,11,-22,-6,-3,1652970150.5952132
5,-15,-33,-52,-26,3,6,2,1652970150.5952132
2,15,6,27,12,-6,-1,-9,1652970150.6061838
-7,0,-5,-18,1,-8,-14,2,1652970150.6061838
-7,-24,5,-6,3,10,22,3,1652970150.6061838
5,11,-11,-20,-12,-10,-13,-7,1652970150.6061838
-1,-9,-28,-14,-15,-1,-4,-10,1652970150.6281252
15,6,20,29,20,8,7,18,1652970150.6281252
-14,0,12,19,-13,11,-6,-5,1652970150.6281252
0,-9,0,-14,11,-7,2,11,1652970150.6281252
-3,-4,-7,-19,-40,-19,-1,-7,1652970150.6470742
0,16,-7,-14,3,1,-4,-5,1652970150.6470742
7,9,5,11,-6,8,3,4,1652970150.6540554
4,0,16,-8,11,-8,-1,-5,1652970150.6560504
-9,0,15,-1,6,-59,-17,-4,1652970150.6630318
-7,-34,-4,10,-33,7,3,-6,1652970150.6630318
10,17,-6,-7,4,1,-7,4,1652970150.6690154
-1,0,-27,-4,15,7,-1,-5,1652970150.6690154
-3,-5,4,23,9,23,-4,-12,1652970150.6914637
-3,-10,-14,-44,-11,11,5,10,1652970150.6974483
-4,3,-11,-18,6,12,2,-9,1652970150.6974483
-5,-16,-6,9,2,33,0,-4,1652970150.6974483
12,21,-11,-15,-5,12,3,13,1652970150.7044299
-13,-4,14,8,-23,-15,-10,1,1652970150.7044299
-12,-26,-1,-13,8,10,2,-19,1652970150.7313936
11,34,-8,-59,-10,0,-10,23,1652970150.7313936
-6,-29,-64,34,-2,-12,1,7,1652970150.741358
-8,9,85,47,10,-10,-4,-8,1652970150.741358
24,27,-9,-1,2,8,3,10,1652970150.741358
-4,-2,74,55,38,15,10,-6,1652970150.741358
3,-15,-3,-2,-6,19,-2,-12,1652970150.7503045
1,33,-20,-8,6,13,1,3,1652970150.7503045
-11,-24,2,0,-58,-20,-9,3,1652970150.7503045
-8,-29,-22,11,-19,-15,0,-7,1652970150.7503045
0,-8,-23,-37,33,18,5,4,1652970150.7653046
12,12,4,9,6,-21,8,4,1652970150.7653046
-2,4,27,-2,-31,-16,-2,-3,1652970150.7702472
5,26,-20,-30,0,8,7,5,1652970150.7702472
-3,4,-1,20,2,-16,-3,1,1652970150.8357203
-8,-28,7,10,-11,-9,-3,-11,1652970150.8357203
0,7,-38,-11,18,-107,-6,-3,1652970150.8437045
-4,-26,17,24,-6,-80,4,3,1652970150.8437045
-5,29,30,-7,-18,-54,3,10,1652970150.8437045
12,6,-4,9,25,-30,1,-13,1652970150.8437045
11,28,3,-5,-11,18,-1,11,1652970150.8437045
-8,-29,-26,-5,2,-19,-4,-13,1652970150.8437045
-3,24,14,16,11,-6,5,-10,1652970150.8437045
4,-19,-17,-47,-22,6,-4,18,1652970150.8437045
-3,-11,10,41,30,-5,6,-18,1652970150.8446581
2,34,20,4,-24,-29,-2,8,1652970150.8446581
-5,-18,12,-16,-21,40,-5,-2,1652970150.863603
-4,1,-55,-19,-19,6,13,5,1652970150.863603
-10,-23,3,-10,18,59,-3,-10,1652970150.870625
-3,-12,-3,-15,14,30,-1,0,1652970150.870625
12,2,10,1,-3,6,-5,24,1652970150.8765986
-10,3,-8,2,-7,-11,3,-21,1652970150.879591
-2,-36,-54,-34,13,-1,-2,8,1652970150.879591
-5,-23,-7,30,-15,-8,3,0,1652970150.879591
14,54,86,19,9,4,-2,-1,1652970150.879591
-4,23,18,17,10,16,-1,2,1652970150.879591
4,22,20,3,3,12,1,0,1652970150.891773
-7,-6,-40,-61,-10,-1,-5,-10,1652970150.891773
-12,-38,-54,4,-9,-17,2,-4,1652970150.910755
-2,-9,20,18,15,1,-3,-1,1652970150.9127493
1,-13,-10,10,-13,-9,-8,3,1652970150.9127493
3,10,3,0,0,3,5,-6,1652970150.9127493
-2,-25,8,-47,-10,-11,-1,-4,1652970150.9277086
-8,-21,-35,22,18,-17,-2,-9,1652970150.9277086
8,25,29,10,-2,0,1,5,1652970150.9277086
-1,18,39,9,0,6,2,1,1652970150.9277086
5,-11,-6,2,5,9,2,0,1652970150.9496512
-1,43,-2,-16,-20,-2,-3,1,1652970150.9496512
-1,-23,1,-10,-1,11,-3,0,1652970150.9496512
4,6,-11,-3,28,0,-6,2,1652970150.9496512
-15,-12,-11,3,-18,19,2,-3,1652970150.9778972
9,-19,-25,-18,-17,13,-7,0,1652970150.9778972
-1,14,12,16,8,30,2,1,1652970150.9778972
-1,9,4,9,3,28,-3,-6,1652970150.9778972
-12,-33,-13,-6,2,-4,-1,0,1652970150.9935832
-2,6,14,-10,3,27,0,2,1652970150.9935832
0,15,30,44,14,3,3,1,1652970150.9935832
-2,-13,-24,-8,-24,-3,-1,-2,1652970150.9935832
3,2,-21,-48,7,7,3,-2,1652970151.014461
-4,-7,0,31,7,-13,-2,-5,1652970151.014461
1,14,19,-10,-21,-22,-4,2,1652970151.014461
1,-3,0,15,6,-17,1,4,1652970151.014461
2,11,10,47,44,-25,-2,-1,1652970151.0344074
1,-5,8,-22,-7,-21,0,-2,1652970151.0344074
-8,-20,-23,-11,-13,-27,-4,-5,1652970151.0363913
2,4,-14,-10,-12,-13,-1,0,1652970151.0363913
3,11,35,21,-3,8,-2,-2,1652970151.0503578
0,-5,3,17,36,28,2,0,1652970151.0503578
2,7,2,0,-24,-6,0,-1,1652970151.0523593
-1,-7,-13,-14,-36,19,0,1,1652970151.0523593
0,-8,-25,-22,-14,25,1,-2,1652970151.0762844
1,-11,-8,0,9,-4,-3,-1,1652970151.0792885
0,2,-1,-54,-2,-15,-5,1,1652970151.0792885
1,-45,25,60,30,33,0,1,1652970151.0792885
-5,-19,-26,-18,-15,5,-2,-2,1652970151.0862582
3,17,18,-8,-10,0,0,4,1652970151.0862582
1,37,5,22,16,18,5,-1,1652970151.09424
-2,44,2,-16,-19,-30,-1,0,1652970151.09424
-1,24,7,8,23,8,-1,-3,1652970151.1092038
0,7,-26,-28,9,31,1,0,1652970151.1092038
-5,-2,-18,-5,33,16,-3,-4,1652970151.1092038
1,10,6,6,9,-10,-1,-3,1652970151.1092038
0,0,-2,13,-37,-19,-3,-2,1652970151.1331031
1,-2,-7,6,7,-28,-2,0,1652970151.1331031
0,-15,-6,-36,-33,23,-1,-1,1652970151.1361265
0,-2,6,-19,3,1,2,0,1652970151.1361265
1,5,9,4,-12,-7,0,0,1652970151.1431055
0,-8,1,3,-4,8,-6,0,1652970151.1431055
1,-8,0,21,4,8,-3,-1,1652970151.1500912
0,-2,3,-7,10,-25,4,12,1652970151.1500912
-1,-3,-8,-11,6,18,2,2,1652970151.204084
-1,-9,3,2,-7,-11,0,-2,1652970151.204084
-1,-9,-2,32,6,20,-1,1,1652970151.2180812
-4,2,0,-18,4,10,-5,-5,1652970151.224039
-1,-3,5,10,-7,10,3,1,1652970151.224039
-1,-5,-4,-7,6,99,-3,1,1652970151.224039
1,-1,-5,-5,-16,60,1,0,1652970151.224039
0,3,4,27,44,47,2,-2,1652970151.224039
-2,-3,-5,-21,-14,-1,-2,-1,1652970151.224039
-1,-2,-14,-28,-2,-42,7,0,1652970151.224039
-5,0,20,37,-16,-96,-5,-4,1652970151.2363122
-2,3,2,19,-7,-49,1,-2,1652970151.2363122
0,-2,-6,-7,28,-77,-3,-1,1652970151.245247
0,0,-3,18,-35,52,-3,0,1652970151.245247
2,-1,-10,-22,10,51,4,-3,1652970151.245247
-4,-6,-12,-13,-13,21,-2,-2,1652970151.245247
-1,0,5,-6,8,16,2,0,1652970151.2777631
-1,-1,24,12,-8,1,1,-1,1652970151.2777631
-4,-11,-1,7,7,-23,-4,2,1652970151.2777631
7,14,5,6,-3,3,-1,-5,1652970151.2777631
-5,-3,-9,-14,-10,-22,-2,-3,1652970151.2777631
1,10,2,6,14,-45,1,8,1652970151.2777631
-4,-7,-6,-7,-24,-44,-3,2,1652970151.2777631
-1,-5,-1,-1,10,-43,-2,0,1652970151.2777631
3,1,-5,-28,-8,-42,3,-4,1652970151.312897
-4,-7,-8,5,-22,-71,-5,3,1652970151.312897
4,3,-3,-13,13,-44,3,1,1652970151.312897
-4,-7,-9,-11,-28,-6,-4,-1,1652970151.312897
0,-1,2,37,19,17,-7,0,1652970151.3348994
2,4,16,-6,5,-15,2,-4,1652970151.3348994
3,2,-5,-8,10,-20,4,1,1652970151.3348994
-1,2,15,2,-14,0,-1,-2,1652970151.3348994
-2,-3,-5,-1,-7,11,-2,-4,1652970151.3683522
2,0,18,19,12,-32,-3,-4,1652970151.3683522
-2,-2,-2,19,-2,0,1,1,1652970151.3683522
-2,-1,-1,-9,7,-1,1,2,1652970151.3683522
-2,1,12,16,-16,6,-1,-1,1652970151.3743687
1,-5,-25,-36,6,-7,0,-2,1652970151.3743687
-1,3,0,9,5,-10,1,0,1652970151.3763611
2,-2,16,13,-19,7,0,-1,1652970151.3763611
2,-4,-1,13,1,3,0,3,1652970151.3763611
-9,-14,-8,-2,1,6,-2,-5,1652970151.3763611
-3,22,-2,-9,0,13,-1,-5,1652970151.3763611
3,3,-11,-17,-3,-4,-1,0,1652970151.3763611
3,5,1,6,9,25,2,0,1652970151.4100044
0,2,-3,-6,7,8,-3,-4,1652970151.4100044
6,-10,1,1,15,8,-3,1,1652970151.4100044
-13,-2,-6,3,-20,0,1,4,1652970151.4100044
2,1,-4,-33,3,20,-3,-1,1652970151.4100044
-2,-3,-2,4,-16,12,1,-5,1652970151.4100044
1,-2,0,-16,-12,3,-2,-5,1652970151.4100044
0,-4,-3,12,6,14,0,-5,1652970151.4100044
-3,-3,8,18,3,8,-5,3,1652970151.442866
0,-4,-21,-17,-11,-8,4,2,1652970151.442866
-1,-2,-4,-5,0,31,5,1,1652970151.442866
2,2,24,12,3,-17,-19,-1,1652970151.442866
-3,1,-15,-12,-14,9,0,-3,1652970151.4762409
1,6,25,18,1,3,-1,0,1652970151.4762409
-1,-1,12,14,-7,10,3,1,1652970151.4762409
1,-4,-9,-21,15,18,4,-1,1652970151.4762409
1,2,-2,-2,7,10,2,-1,1652970151.4762409
0,-1,-10,-5,-11,1,-5,-4,1652970151.4762409
-5,-7,-7,11,13,-5,-5,0,1652970151.4762409
0,-3,-11,-38,-1,4,9,-2,1652970151.4762409
3,-5,1,7,-20,-28,-2,-3,1652970151.510253
-5,-3,-5,-10,10,10,4,2,1652970151.510253
5,11,6,-5,-1,-17,-4,1,1652970151.510253
0,0,-7,12,12,1,-1,0,1652970151.510253
-1,1,-1,-5,0,-9,4,-1,1652970151.5364766
2,-3,0,6,12,2,-2,1,1652970151.5364766
-3,-5,-3,-12,5,-9,-9,3,1652970151.5364766
-9,-6,1,36,31,16,13,-15,1652970151.5364766
-3,-3,-6,-23,-16,-12,0,-4,1652970151.5434601
0,-1,-4,-49,-22,3,0,5,1652970151.5434601
-1,-3,-1,24,53,20,-11,-2,1652970151.5434601
3,1,6,23,-55,-38,-2,11,1652970151.5434601
1,2,5,13,-20,7,-4,-2,1652970151.5763721
-3,1,-3,10,9,-3,1,-1,1652970151.5763721
-2,-3,-10,-29,-2,20,2,-4,1652970151.5763721
-1,0,-4,-6,24,16,-8,-1,1652970151.5763721
-2,0,-1,22,2,15,10,2,1652970151.5763721
1,-1,3,-6,-11,-4,-5,-4,1652970151.5763721
2,-3,-7,-30,-9,-4,4,0,1652970151.5763721
-1,-2,-17,-18,16,13,-4,-2,1652970151.5763721
-6,-11,-7,24,5,3,-2,2,1652970151.647133
18,18,37,43,8,16,1,0,1652970151.653118
-13,1,-1,7,-1,-11,1,-3,1652970151.653118
3,2,19,-4,-4,1,0,0,1652970151.653118
1,1,-8,-13,13,9,3,1,1652970151.653118
-7,-8,-9,12,32,-8,-8,-5,1652970151.653118
1,-4,0,17,30,6,2,1,1652970151.653118
2,2,-6,-17,-52,-11,-4,0,1652970151.653118
-2,0,2,11,5,5,-3,0,1652970151.653118
0,-1,2,-33,-13,-15,-4,-3,1652970151.653118
0,-2,-7,-18,-50,-9,-1,-1,1652970151.653118
-2,-4,-13,38,69,32,4,-2,1652970151.653118
-4,0,12,13,56,2,-5,-6,1652970151.653118
-1,-2,-11,2,-45,6,2,2,1652970151.653118
0,1,6,-7,-41,-11,-1,-1,1652970151.653118
-1,-4,-4,-6,-1,-4,-2,-2,1652970151.653118
0,1,-11,-35,-12,0,-4,0,1652970151.7302263
-2,-1,-20,22,23,-3,0,0,1652970151.7302263
0,4,37,-9,-13,-2,3,1,1652970151.7382562
2,4,3,-19,-30,2,1,2,1652970151.7382562
1,3,9,31,17,0,0,3,1652970151.7382562
-5,3,10,2,3,-2,-1,-2,1652970151.7382562
-3,-7,-15,-6,-1,-2,-1,-3,1652970151.7382562
1,-1,-7,-1,1,-13,-6,-3,1652970151.7382562
0,-1,-5,-29,-22,-7,-3,-2,1652970151.7382562
-3,-4,-4,0,5,-5,-2,-2,1652970151.7382562
2,0,-3,1,-1,-4,-1,0,1652970151.7382562
0,0,0,31,15,-4,-5,0,1652970151.7382562
-5,-3,-8,-40,16,5,10,1,1652970151.7792184
2,-2,-4,31,-10,7,2,2,1652970151.7792184
2,2,14,31,-5,-12,-2,1,1652970151.7792184
-4,-3,-12,-93,-23,-7,-1,-1,1652970151.7792184
3,-4,-9,32,10,18,-4,0,1652970151.8061917
-2,3,23,-20,-55,-19,-1,-3,1652970151.8061917
0,-2,-14,-14,19,14,8,1,1652970151.8061917
-2,-2,2,35,10,13,2,-1,1652970151.8061917
2,4,15,19,-8,-7,0,0,1652970151.8061917
-3,-7,-16,-12,43,14,-1,-1,1652970151.8061917
-1,-4,-5,4,-18,-13,-6,-4,1652970151.8061917
-1,2,-9,12,4,2,0,1,1652970151.8061917
-3,-1,8,25,13,-14,-4,-4,1652970151.8161552
-2,1,16,-26,-2,22,4,2,1652970151.8161552
1,2,0,-1,13,-13,-1,-1,1652970151.8161552
-1,-3,-4,-17,-27,11,8,3,1652970151.8161552
-2,-1,-14,-29,-10,-8,-2,-2,1652970151.8321037
0,-1,-13,1,-5,-14,-3,-1,1652970151.8321037
-1,-4,0,14,-3,4,-1,1,1652970151.8321037
0,-3,-7,-1,16,12,3,13,1652970151.8321037
0,6,9,-22,-44,-4,-6,-17,1652970151.8492224
2,-1,5,6,17,-8,0,-1,1652970151.8492224
-3,-1,-4,5,15,4,0,-3,1652970151.8492224
-1,0,5,47,-36,-14,-5,1,1652970151.8492224
0,-3,-5,13,22,-4,1,7,1652970151.8562348
-4,-5,-15,-18,-16,-4,1,-4,1652970151.8562348
-5,-2,-2,12,-6,-13,-4,0,1652970151.8562348
0,3,13,-20,21,20,-1,-6,1652970151.8562348
1,3,1,-35,-48,-13,-3,2,1652970151.8721595
-1,0,-1,1,31,-1,0,-1,1652970151.8721595
0,-3,-11,-29,-20,-5,-2,-1,1652970151.8721595
-4,3,10,-17,-36,-4,-1,-4,1652970151.8721595
-2,-3,-7,25,31,5,0,0,1652970151.8941007
2,0,-3,-3,-2,-7,-2,2,1652970151.8941007
1,-2,-8,21,18,21,0,-3,1652970151.8941007
2,3,21,-13,-5,-10,-2,-3,1652970151.8941007
1,1,4,44,30,3,0,4,1652970151.91305
-2,0,-3,-27,-22,-31,-7,-2,1652970151.91305
-1,-1,10,-4,-13,-1,-2,-4,1652970151.91305
-1,-3,-12,-9,6,-6,-2,-5,1652970151.91305
-2,-5,-13,-26,-14,10,3,0,1652970151.9359887
0,-2,-7,-2,-9,-7,0,0,1652970151.9359887
1,0,-7,-16,-24,4,3,1,1652970151.9359887
-1,-2,-8,-12,8,-8,-1,0,1652970151.9359887
-1,0,7,31,15,-10,-3,-2,1652970151.948956
-2,0,17,49,21,14,0,-2,1652970151.948956
0,-1,-8,-37,-11,1,1,9,1652970151.948956
-4,1,9,20,-7,-14,-4,-10,1652970151.948956
-2,0,4,-4,-20,-2,1,-1,1652970151.969898
0,1,-4,0,4,12,3,0,1652970151.969898
-2,-2,-11,-67,-11,-31,-11,-6,1652970151.969898
-1,-3,-1,45,46,30,1,4,1652970151.969898
2,-1,-13,-45,-10,-9,-2,4,1652970151.9947176
-3,-5,-1,61,3,-4,-3,-4,1652970151.9947176
1,8,35,36,3,0,1,6,1652970151.9947176
-1,-2,-11,-45,-7,-7,-4,-1,1652970151.9947176
1,-3,-5,-18,-27,-3,1,0,1652970152.0136306
-4,-3,-2,27,20,7,-3,-4,1652970152.0136306
0,-4,-14,-12,11,12,6,0,1652970152.0136306
1,4,7,5,-13,-23,-3,-1,1652970152.0136306
-1,0,5,10,1,3,1,-3,1652970152.0472608
-1,-2,-8,-48,-20,3,-3,1,1652970152.0472608
-1,-3,-6,33,13,10,-1,-5,1652970152.0472608
0,-2,-7,10,20,-7,-1,-3,1652970152.0472608
-1,2,15,5,-14,5,3,3,1652970152.058272
1,1,-5,-22,-4,-1,-1,-2,1652970152.058272
-2,1,0,1,-1,-14,-2,0,1652970152.058272
1,-1,-8,-5,13,26,4,2,1652970152.058272
-2,-2,1,7,5,4,-3,-3,1652970152.0662484
-3,-4,-2,-28,-33,-15,-3,-2,1652970152.0662484
1,1,-1,23,11,9,-2,-4,1652970152.0662484
-2,-3,-3,-1,-5,-21,-1,0,1652970152.0662484
-1,-2,-3,0,20,23,1,-1,1652970152.0881896
-4,-2,-10,-3,-22,3,1,-1,1652970152.0881896
4,4,0,-1,5,-7,2,3,1652970152.0881896
-3,-5,-8,-2,-10,-6,-3,-4,1652970152.0881896
1,-2,19,-20,-16,-12,-7,4,1652970152.1141198
-3,0,4,16,20,8,-1,-7,1652970152.1141198
0,0,2,1,-12,4,3,-1,1652970152.1141198
-2,3,-5,3,9,18,2,0,1652970152.1141198
-1,1,16,-8,-3,-3,-3,-5,1652970152.1290772
1,1,-5,12,5,-3,1,7,1652970152.1290772
-3,-4,-1,4,4,12,0,-2,1652970152.1290772
1,0,-3,24,-5,-8,-3,-2,1652970152.1290772
-1,-2,-9,-23,8,-2,-3,2,1652970152.1943245
5,3,3,-18,3,18,4,4,1652970152.1943245
-1,0,-4,9,-15,-22,-7,-4,1652970152.1943245
0,-6,-12,-28,-8,-2,3,2,1652970152.1943245
1,0,-14,-1,-5,-6,1,-1,1652970152.1943245
-3,2,20,53,25,17,1,0,1652970152.1943245
-1,-5,-9,-24,5,6,-1,-6,1652970152.1943245
0,3,3,1,-4,-9,-2,0,1652970152.1943245
0,4,10,11,7,0,1,1,1652970152.1943245
1,-1,-4,-28,-23,-9,-2,-2,1652970152.1943245
