0.2858065284901846,0.4217953234241586,0.41018281269198226,0.568989149864057,0.4990405911046204,0.4737976182170649,0.17269065564992553,0.2999361648651549
0.2864793009310352,0.42474362416341,0.4113854401275122,0.5687882972962133,0.5017387097543177,0.4829265549212917,0.1729409548072502,0.3031521163503501
0.2871404416508668,0.4275281531552513,0.41266682977914004,0.568454887435206,0.5046174380107018,0.4922957292566887,0.17333433922481,0.3069786492280154
0.2878299335571983,0.4304608929233032,0.41453714029972993,0.5680685481151894,0.507592602520228,0.5017385650478223,0.17385752520154915,0.31164628781394815
0.2885124491805302,0.4334389680409758,0.4171494944499283,0.5681133411402518,0.5109914378936211,0.5110488521129742,0.17444419334893926,0.31685990818165427
0.2891876327591859,0.4363839877635432,0.42028191696441347,0.5691321079871025,0.5151265493013186,0.5204306266228212,0.174977357354109,0.3219622708627702
0.2898016634370458,0.4395552975399602,0.4239221553383233,0.570934448788695,0.5196945105417726,0.5297981789955514,0.17542539780381713,0.3266056150861624
0.2903566058869071,0.44291994407676244,0.4279844537562049,0.5730031835582948,0.5242642582746666,0.5386483228921037,0.17582501107108323,0.3308923226577162
0.2908879218751167,0.446185467243509,0.43215236716794836,0.5751709616166933,0.5288179311574487,0.5467342465216852,0.17615117200552097,0.3349474143729529
0.29151647234375644,0.44960708818067563,0.4360294967393414,0.5773645265138416,0.5333785752799582,0.5542418165435601,0.17640007173374994,0.3387101809316803
0.2925717227216616,0.453836629556697,0.4394308430755881,0.5794602927269746,0.5377609639249209,0.561336008990539,0.17659488530936815,0.34212951941212605
0.29416783050552936,0.45890175830874047,0.4426144925332131,0.581520660486085,0.5419886703658437,0.5678541039343015,0.17671103122106271,0.3451903089662396
0.2959187095569133,0.46438685939074104,0.44620862554324886,0.5838928485397641,0.5463718888324637,0.5738415874660994,0.17681198953212207,0.3479252336775604
0.2974482162455652,0.4700477503473659,0.4504660582134937,0.5866813633028176,0.5509932329841508,0.5796366632727269,0.17701198399148776,0.35051964884656767
0.2989650725837186,0.4761655087503008,0.45487915295545384,0.5894241476404373,0.5556573723792726,0.5855763956178323,0.17730651777037182,0.35326465178730365
0.3007759177717488,0.4830754160384298,0.45925636394447267,0.5917996150465513,0.5601640516946889,0.5917423671855117,0.1776978841380966,0.35653214776990794
0.302632219484532,0.4902683604687963,0.4638089751712357,0.5938080624940518,0.5642951261684428,0.5977443801666731,0.1781948691753896,0.36024947492982573
0.30429620181268824,0.49718353567314144,0.4684514236350122,0.5954300705223988,0.5681765911376748,0.6032828971015892,0.17875228755096634,0.3638318762675363
0.3058013595974192,0.5036525015125942,0.47287445541546336,0.596854701230506,0.5720829845727795,0.608459630143543,0.17942046253541172,0.36702769032579013
0.3071197118649312,0.5096349155987269,0.47689612868392395,0.5983298508702153,0.5758623608094735,0.613425708322006,0.18018056406509717,0.3700177802655142
0.3081645003531831,0.5152865510798691,0.48070383714455084,0.5998117841867665,0.579255838589951,0.618085202179071,0.1808874584837632,0.37292854653410307
0.3089265465992027,0.5206363839470564,0.48446366572115324,0.6010447094169343,0.5824373743555564,0.6223065312611171,0.1814892878822205,0.37570713845439657
0.3095310630547665,0.5256656206934376,0.48794674278193456,0.6018510505099708,0.5858209499600998,0.6260979752203123,0.1819632931555098,0.378296443697113
0.3100979729838034,0.530657461960494,0.4912352777372176,0.6024224015810237,0.5893410312354623,0.6294478110698047,0.18230119954002624,0.38071556006463075
0.31075539644108296,0.5359964988544312,0.4946086739209335,0.6031027205367449,0.5927007917049479,0.6323719954216844,0.18254871089092176,0.38294948997482603
0.31155225297419903,0.5421773074994605,0.49787278006125113,0.6038464995040741,0.5958170372831075,0.6349530619531565,0.18270283053345704,0.384883777058891
0.31236805279969965,0.5492977454507174,0.5009890784905652,0.6042424194702429,0.5985368787960783,0.6372569170813245,0.18270729454793636,0.38648277358263006
0.3132546727422218,0.5566415101300914,0.5040077854802917,0.6041648098360255,0.6007144537742274,0.6392933831694735,0.18258865997045795,0.387812993945133
0.3142349230614455,0.5636769881736478,0.5067563928188386,0.6037546705586758,0.6024313984051095,0.6410654279300053,0.18243262219710885,0.3888781479731769
0.315109895886091,0.5703305528302602,0.5091838108517036,0.6031939969708614,0.6037528740686252,0.6425560875289376,0.1822275853694929,0.3896887261368848
0.3158900074127282,0.57653883156387,0.5113016537680238,0.6027639961547905,0.6046747327292771,0.6437627788858551,0.18199593461877253,0.39027506666830547
0.3167390897161824,0.5822951233041519,0.5131681316010127,0.6024126030115612,0.6052936817268336,0.6446431895998707,0.18181928158195781,0.39064634803615356
0.3176265820286962,0.5878207769901908,0.5149595146414087,0.6018091290352734,0.605622286845836,0.6450969874273164,0.18170877871612778,0.39079818556424917
0.31843629715482513,0.5934213485743245,0.5167107665375065,0.6008581360814559,0.6057865093369809,0.6450553558790636,0.18166834401566467,0.39070653911491027
0.3191641473227046,0.5990881754056122,0.5182882214364282,0.5998363963818854,0.6059537970180606,0.6444730051454831,0.1817083435211212,0.3903687061771342
0.3197528138022412,0.6044852955617606,0.519651107305633,0.5989151196081421,0.6058497310616667,0.6433806810710312,0.18183861514894473,0.38996954607451473
0.3201342311892993,0.6093049790833278,0.5206670277098947,0.5978300772331162,0.6053324270229578,0.6418885171952624,0.1820417383273491,0.3897461176188482
0.32034378134991276,0.6134540049261117,0.5212163606034689,0.5964958300889082,0.6045340033542232,0.6400688173081017,0.1822341196435781,0.38961745436916195
0.32040878855699567,0.6169508258332793,0.5215862899840923,0.5950849587285475,0.6033738439501258,0.6380512329450149,0.18235586658027922,0.3894190994946904
0.3203421573097289,0.6198605240008878,0.5223926767528296,0.5936623286523418,0.6017618133093627,0.6360201460945413,0.1824099311089991,0.3891409011279104
0.32018310223031055,0.6222994078547328,0.5237361227358674,0.5921429069055365,0.5997257903614444,0.6340182201347729,0.18241257417079035,0.3886996801523415
0.31994247923036445,0.6242788967130406,0.5250103142922714,0.5903986475201338,0.5973129097200571,0.6324539637752323,0.18244625925158528,0.38799597163558946
0.3195371478541015,0.6257234397651245,0.5258693611986243,0.5885346084424639,0.5946822827543885,0.6321790417327361,0.18254303462929247,0.38705523361511895
0.3188877396397028,0.6266147734499696,0.5263705904850252,0.5866915135512756,0.5920063745211135,0.6332780947348513,0.18259977588893445,0.38591541856083567
0.31801886013968855,0.6269760776869939,0.526549125547256,0.5848167444465879,0.5892830502421667,0.6348144938190432,0.18260479607774072,0.38459964995572016
0.31697431538768683,0.6268768384701662,0.5264054452174087,0.5827730825061792,0.586436768190661,0.6362663036763381,0.18258708177320432,0.383096786522399
0.31578280545346044,0.6263639089505093,0.525953690505986,0.580422749225776,0.5833485864343007,0.6380235839541613,0.18252089421827353,0.3814030377247164
0.31449198295519776,0.6254557617883716,0.525154197700163,0.5778080843277352,0.5799651389459105,0.6403521735632003,0.18239503187376951,0.3795417058535015
0.31312078176686037,0.6244245147051208,0.5240161641242079,0.5751704214254011,0.576356011024489,0.6431715097624922,0.18217209377384588,0.37748175472530127
0.3116673327039204,0.6235907526188215,0.5226891192970463,0.5725935378724655,0.5726214116985545,0.6462770238583314,0.18182976988986463,0.3752070605376003
0.31008981148994313,0.6229400125475141,0.5213095912586165,0.5698432718434437,0.568997721452344,0.6494794466279876,0.18140032259752575,0.37277595298537747
0.30836170306981575,0.6223446221007206,0.5199012504450619,0.5667426063936205,0.5656641397886505,0.6526845576380417,0.1809080104262413,0.3702644358390759
0.30651796360488137,0.6219899575147984,0.5185335681583054,0.563423423308697,0.5624909308408581,0.6556217075714716,0.1803493545943719,0.36768511406773285
0.3045587120538992,0.6220597928050959,0.5174534782415998,0.5603798117196361,0.5592602383984856,0.658139242501169,0.17971440559176485,0.3650701681982472
0.30247080181737745,0.6222080015930547,0.5167030133789389,0.5579504043306988,0.5558372744732487,0.6604936611823468,0.17896697611700824,0.36244372874878
0.30025515371874634,0.6221435389402483,0.5159342760960418,0.5557899297243502,0.5522069553135963,0.6628636138142182,0.17810598979921008,0.35971522748974405
0.297912771888591,0.6218623370918921,0.514881364446116,0.5535544891637346,0.5484486561986416,0.6649118396030985,0.17718401430764577,0.35680481644214485
0.2954514251291496,0.6213272845400092,0.5134573548092272,0.5513832176517407,0.5445113934774198,0.6663227304303372,0.17621796202438114,0.35370983864448147
0.2928786594921259,0.6204964416288313,0.5116596906675551,0.549516117210759,0.5402997701599244,0.6672830833046023,0.17519730911828657,0.3504479886468869
0.29020180067337703,0.6193567206291368,0.5095999485601921,0.5478080531677816,0.5359300643147479,0.6680054424596981,0.17412541370694964,0.3470096093472822
0.28742795651627673,0.6179092726666758,0.5073383076605942,0.545865978072099,0.5315871991073081,0.6683456758906655,0.1730055374478832,0.34340569159595263
0.2845773915249035,0.6161421240259641,0.5048924111721205,0.5435749030045575,0.5272340851765657,0.6681595980034392,0.17180741681067865,0.33966696630048604
0.2816561917432721,0.6141109895172264,0.5023261151554073,0.5410123796949342,0.5229355441354147,0.6676039790821436,0.17056903848809854,0.3357828433394222
0.2786635609775381,0.6123641782581054,0.4996471293263661,0.5384200006795307,0.5188538173133006,0.6668291335190135,0.16936020704784757,0.33176339103364894
0.27563223636629625,0.6113857816470297,0.49679607761837485,0.5361024340906108,0.5147761588297093,0.6657517328038383,0.1681406898158073,0.3276718584568512
0.272566825952316,0.610768938355869,0.4939235949274894,0.5343842727603871,0.5104923780760647,0.6642990476289432,0.16685864089012092,0.323535385928686
0.26943834066671296,0.610398242817262,0.4915214604167746,0.5338829791130854,0.5061559731224516,0.6624152434564656,0.1655247013588789,0.31931980414965133
0.26624585591030125,0.6107246870737357,0.4896718429033387,0.5345127267493409,0.5019338802449078,0.6600138985594431,0.1641624718929639,0.31502593483803626
0.2629885490509822,0.6116976029693024,0.48783101329421,0.5353211529825339,0.4977717203890053,0.6571265076544479,0.1627544391521277,0.31070144126390625
0.25964563792439327,0.612846684961503,0.48569281301224687,0.5358183239153753,0.49373108097305124,0.6538438396471741,0.16129058103578575,0.30635851522189106
0.25626418566953657,0.6138422423551521,0.48350623738462195,0.5364050709124745,0.49002453267768115,0.650259786529354,0.1598482822667203,0.3020021505372761
0.2529026193517112,0.6145763243972614,0.48152287992862275,0.5375048359258899,0.486594333887957,0.6463909055644551,0.1584748000814134,0.29765719485864633
0.2495165184999896,0.6149392379613094,0.47958204738938964,0.5387800234809882,0.4831041753553375,0.6421530201690875,0.15709492447796264,0.2933006033534503
0.2461102183593394,0.6150336796987402,0.4775901621823389,0.539967712989322,0.479372825519127,0.6375127696939473,0.15566346379365453,0.28890365791233785
0.24279486054836363,0.6149982583593802,0.47557142376923045,0.5410906180183099,0.4755614590380171,0.6326325243489124,0.15423084338942228,0.2844924150017183
0.2396164954932133,0.6146514447960899,0.4735289480548081,0.5420902961827795,0.47185775353428266,0.6276745159853744,0.15281855462845836,0.28007844066477244
0.23652543682203023,0.613906816484278,0.4715392839504947,0.5430914845183411,0.4681536308826987,0.6225533071809274,0.15140701958455047,0.2756326852391157
0.23346070115297177,0.6128024377439049,0.46946165231457915,0.5440664069984738,0.4643122802680173,0.6171539010983199,0.15000425420509478,0.27114744999893736
0.23039067362116444,0.6112881486717305,0.46711467499729786,0.5447611975577307,0.4604169191875138,0.611466856133956,0.14859117381075337,0.2666421527085676
0.2273051761989204,0.6093698525049269,0.4646660995738968,0.545287648235704,0.45649371332248184,0.6055302203576215,0.14713616112238626,0.2621220147680278
0.22418780213926268,0.607087015761479,0.46236339941710025,0.5458598307886823,0.4524540569518039,0.599500976548486,0.14566250094767716,0.25759873095633706
0.22107637608013714,0.6044643699219775,0.46010885507618543,0.5464417757010398,0.44831359657094905,0.5935093171359973,0.14417911231684313,0.2531035487399865
0.21801375915151702,0.601519213837648,0.4576685421000809,0.5470124390434119,0.44418768536823117,0.5876128810384876,0.14266110629331824,0.2486395867385785
0.2150007870492758,0.5982483481158706,0.4551866083600664,0.5476519915820456,0.4401264760728902,0.5821542064950039,0.14110476680553383,0.24419642599855787
0.2120382112241043,0.5946958285287539,0.45298818448914624,0.5483902519692976,0.43619125140366677,0.5774805815236549,0.13953332009382288,0.23977745216178456
0.20905984227557015,0.5908906963570687,0.4509360394999633,0.5489280359992921,0.43241376551095384,0.5734687994849654,0.13796899765656587,0.235372508483369
0.20603581216921507,0.5868342309190473,0.44872492992864543,0.549253478578859,0.42869052125689056,0.5696928149892528,0.1364130001524909,0.23096518009384548
0.20303119826651114,0.5825747002637021,0.44635052656842134,0.5498368239287096,0.4250227560540512,0.5658251008153652,0.1348530961186304,0.22656651157249189
0.20006142948193859,0.5781517849804588,0.4438556476726781,0.5507264749472182,0.42151188929229827,0.5620405260827528,0.13329096130622328,0.2222004310895157
0.1970810570180365,0.573563483298778,0.44140171425698316,0.551841402273417,0.41822803775566647,0.5589007517705659,0.1317549446147744,0.2178697376607131
0.19408673307703375,0.5688615277408826,0.43925675426324823,0.5533178308271958,0.4151912503628119,0.5565947390075541,0.13025207992702725,0.21355701664056645
0.19110869858412768,0.5640955124493408,0.43727569258161875,0.5549113032557736,0.41223994549351667,0.5550216223488651,0.12874226177388276,0.20925227876295838
0.18812906289965053,0.5591859051044509,0.4351257076295791,0.5562407814345912,0.4091860509720741,0.554331592329981,0.12720719209804263,0.20496601901377123
0.18513740034535262,0.5540768260601243,0.43280952991056204,0.5572830242860847,0.40607708903277423,0.5543933360741419,0.12566282215796415,0.2007015725117869
0.18220398136554491,0.5489089092416501,0.4304101631686113,0.5581297392323203,0.40303880138213777,0.5546593061787085,0.12413779091615862,0.19647548029277795
0.17945614006622773,0.5438100479909384,0.42791348106588406,0.5589624405557106,0.4001847112687497,0.5547258996451833,0.12266616007498359,0.19233695732202705
0.17702886982617985,0.5387219904448042,0.4253662386823203,0.5599881978952764,0.3975964869906318,0.55456828658678,0.1212403438608914,0.18833299532084308
0.17496407081345522,0.5339567331995548,0.42275972047354754,0.5611240859474697,0.3951112968161112,0.5542699078557175,0.11982629810248473,0.184495042104772
0.17326804265528323,0.5298725765706904,0.4200187873262871,0.5622839907592372,0.392566599654923,0.5543854169161112,0.11844493433242656,0.18084633265787958
0.1719665130579582,0.5260761379441682,0.41711181089078997,0.5633253437993735,0.3899540662963877,0.5562405929927026,0.117136281655112,0.17735542192130382
0.1710034793833184,0.5221039344908188,0.4140354413898852,0.5640650848160419,0.3873861421528277,0.5598917645816364,0.11589844373443647,0.17403219470311562
0.17023144250771774,0.5179273234879378,0.4107799521994543,0.5645757801734533,0.38500377287572635,0.5643146398133038,0.11472953827496124,0.17093943199938955
0.1694890708194838,0.5136193935748649,0.40732284039904465,0.5648000307686376,0.38270759160028617,0.5699929177040305,0.11366112799971848,0.16798987308495408
0.16880253570771647,0.5091432087410956,0.40368957729517435,0.5646898943508984,0.380703334307834,0.5779429996720752,0.11280353845988832,0.16509991101081703
0.16829710665468606,0.5044636005187377,0.39991806927615964,0.5643602977922972,0.37925437415780805,0.5882055771588441,0.11218186588010215,0.1623098617162687
0.16791191378326156,0.4996942161157057,0.39605808083297883,0.56389464172375,0.3781307142780386,0.6004295553980215,0.11164605332479582,0.15962476292796157
0.16748164105070326,0.49493716476911315,0.39218404311357563,0.5634196355271663,0.3772123278703524,0.6140966825418382,0.111132713338502,0.15700921640358212
0.16692843141317096,0.4901363295719228,0.3884407118211246,0.5629027143421858,0.3764376935146638,0.6281682725085453,0.11065473685128553,0.15444266693830247
0.16625816134518406,0.485244760476222,0.3849263101945515,0.5623395127403807,0.37569433686902626,0.6416905019365856,0.11015756091813336,0.15189203336910093
0.16554342450710988,0.4803045527122412,0.38149387768573495,0.5618462468541914,0.3749883023367113,0.654714304890366,0.10959569818900637,0.1493323427070402
0.1648603887897018,0.4753426472555098,0.37800276097572005,0.5613802380264079,0.3743587653920517,0.6676632966581874,0.10897918811099673,0.14677314571223848
0.16418827814377548,0.4703179757320986,0.3744388228521399,0.560954123575563,0.37385649714204444,0.680394507750893,0.10840460401614842,0.14422357762728844
0.1635072088234011,0.465177943136964,0.37082872648319926,0.5607537879410781,0.37337616255290007,0.6924705239245226,0.1079375382211064,0.14168568146048252
0.16284497148518712,0.4599525828741079,0.3671512192376669,0.5607896708793805,0.3728504126593067,0.7038078696061348,0.10747347998590447,0.1391680861241366
0.16218801520003182,0.45475093703437086,0.3633325494932705,0.5607439186664042,0.37246224938331507,0.7145079306654317,0.10693920113607289,0.13667233999646003
0.16147657113485805,0.44963717052058755,0.35944271192252153,0.560506461816071,0.3722595560963989,0.7249624843549811,0.10637169878422152,0.13418653116653126
0.16069363611967788,0.4446391452522121,0.3556490175069695,0.5604402159262335,0.37220103887142675,0.7358206438699695,0.10577965054305835,0.1317193136398908
0.15985644467043403,0.4398235163561955,0.35211809964208907,0.5611930282603869,0.37256129891554407,0.7473485691072403,0.10513126490076706,0.12927894740209778
0.15900827855207403,0.43519369269336555,0.349055898433638,0.5629692731163332,0.3734555089830868,0.7597266615213951,0.10443630200278864,0.12686662161275583
0.15819723521265444,0.43065246629272064,0.3464182577222768,0.5650541656137698,0.3744383871552158,0.7729929431180032,0.10373088663847457,0.1245101905002798
0.1574291703974263,0.4261000819951438,0.3438482904821292,0.566890717944526,0.3752042633994111,0.7865477604723095,0.10302284002125417,0.12224961579626961
0.15670295793531286,0.4215347337642484,0.3411984460211476,0.5685882382972971,0.37592897727062496,0.7997838105591776,0.1023129600695377,0.12008960032841878
0.15597067850970123,0.41698145037977913,0.3386753323897834,0.5702447330011301,0.37678745267701735,0.8126821094078165,0.10158195393466775,0.11798105784013367
0.15517981510442377,0.4123973017734435,0.3364563989992477,0.5716731789238939,0.377672758718641,0.8254053448601933,0.10084481733096552,0.11590372930576802
0.15432699113786494,0.40770782348756196,0.3344102223586001,0.5726815285294448,0.37842241182875713,0.8379688989182837,0.10015601595758561,0.11385826380980135
0.15341572253534555,0.4028953763382605,0.332364121694003,0.5733672956117711,0.3789680377471987,0.8503876393010072,0.09950742838275613,0.11181850765157787
0.15249623053657968,0.3979833221192068,0.3303802426707631,0.5740112745227864,0.37929791811616176,0.8625956959895064,0.09888456132426991,0.10977281007040643
0.15164999166073115,0.3929673597540966,0.328491226444448,0.5747751224017082,0.3794612256904564,0.8745636946061595,0.09830027030974187,0.1077300902033208
0.1508612676777455,0.3878434753922742,0.32656105526840956,0.5755726612877617,0.3795987605311868,0.8865178352940589,0.0977266992452418,0.1057055626738025
0.15006146112306604,0.3827015371601068,0.3244797198221111,0.5761810206339524,0.3799054025156882,0.89848060907845,0.09713719221084069,0.10372713527848185
0.14922508195013165,0.3776342112295956,0.32227585640799206,0.576474115072531,0.380340077055221,0.9101325376112156,0.09654638276492035,0.1018281444911577
0.1483879567119238,0.37264983335843976,0.320063892596888,0.5766592545635294,0.38066279228005145,0.9210613507336217,0.09598164171090075,0.10008720309307702
0.1476044136538612,0.36774292507360623,0.3178730597287781,0.5770083898575016,0.38073101097823014,0.9309736814662813,0.09545575334205543,0.09863952864373748
0.14690631052294414,0.3629081711844158,0.3156109512818901,0.5773736521948897,0.3807095037176781,0.9398105293158375,0.09496753697519547,0.09747377447705968
0.14632403815881548,0.35822064926810837,0.313256104735627,0.5774263763630968,0.38086294263422177,0.9475766696308671,0.09451582686536826,0.09641835193583313
0.14584643917487508,0.3538656933838276,0.31090842695895554,0.5771466634493607,0.3812437506620163,0.9542643320323729,0.09411284459043878,0.09538925390663607
0.14543599617147476,0.3499600889953008,0.30858324486489774,0.5767163788456477,0.3818015638046887,0.959847067152642,0.09377691953396011,0.0943997018597346
0.14507681514484208,0.34632093069679043,0.30626176782631437,0.576135795302212,0.3824880358128396,0.9644276748817846,0.09348540408752908,0.09342887475905882
0.14480713092916542,0.3426526570677311,0.30401962156867157,0.5754320626372007,0.3832434252671076,0.9681589429278473,0.09320322004160467,0.09245015234233189
0.14460325682254532,0.3388932152960357,0.30186220927118934,0.5746981292715488,0.3839236029512963,0.971000632674027,0.0929235483643749,0.09146482260500924
0.1443822983372971,0.33516385793562936,0.2997678736889719,0.5737421235123081,0.38441083344965216,0.9729686005901181,0.09261980606611372,0.09047412394994567
0.14413183931073476,0.3315738533515055,0.2978294990452824,0.5726481642674097,0.38465954351438086,0.9742259485959021,0.09227996050303454,0.08948593210105325
0.14384671757598969,0.32808049597983957,0.29612241067790607,0.5717910301139739,0.38488043687725265,0.9747689139600781,0.09198614013923867,0.08850109215793181
0.1435220287596199,0.32456261132714737,0.2945312305541826,0.571254860370581,0.3857163606893234,0.9745076697527912,0.09185697572819984,0.08754715307578789
0.14315311981371484,0.3210046036896305,0.29289199501138946,0.5708991916129246,0.3873002438568092,0.9736311931252778,0.0919255523524377,0.08665712275485409
0.1427355825864329,0.31749188314379495,0.29115488730553096,0.5704758289580548,0.38898963185067925,0.9723810165315098,0.09209629330331742,0.08578896749794764
0.1422786193437977,0.3140526168032763,0.2893258376676418,0.5698811475971799,0.3905443004276786,0.9707077270223947,0.09224424688070926,0.08490245911884939
0.14181112838092064,0.3106067015608413,0.2874239792950772,0.5691833401256229,0.3922159833684108,0.96851766576345,0.09232345882133378,0.08399925104405176
0.14141424997625374,0.30717781102706115,0.285447626356532,0.5684477353009045,0.3940648412970621,0.9658086603028375,0.09233683990992082,0.08308762692484614
0.14109198468254722,0.3038220033788824,0.283455411787786,0.5677034296531345,0.3958273236281715,0.9626393071903093,0.09251456043561113,0.08218889046893753
0.14076785571930026,0.30063294587898615,0.28157029540763556,0.5668913462804032,0.3972915318307734,0.9591931341500349,0.09320366280251483,0.08132340716100064
0.14055591822103577,0.2979073389470491,0.2798295588070087,0.565888181439381,0.39861610519347457,0.9555456714058385,0.09429434154766242,0.08059085682256627
0.14065876594978258,0.2957346493911758,0.278135004983595,0.5647566949529743,0.39995292393316684,0.9514618073574044,0.09551402639981071,0.08020680639290297
0.14100913257080702,0.293878996515513,0.27641271749169183,0.5636573325314573,0.40113970239811003,0.9467170688077925,0.0968158179750683,0.08018991189414978
0.1413886589879472,0.2921144440533451,0.27471236597226767,0.5625630157287695,0.40199460831207623,0.941685739336838,0.09816814760382898,0.08028354004074684
0.14170879421124613,0.2902916456872625,0.2731416140158279,0.5615080115446427,0.4026382135452023,0.9368464613959114,0.09960094327084294,0.08034239249582051
0.14201192581837285,0.2884148923656287,0.27172977593335773,0.5606253492193316,0.40322617007962763,0.9319214370257441,0.10116949853242733,0.08043478320622974
0.14232524388632614,0.2866421176033662,0.2703108460522537,0.5597746724805289,0.4036466673482215,0.9265046180907142,0.10283965561911904,0.08060596720437962
0.14259451562720618,0.2849638284213416,0.2688263288549744,0.5586812885064147,0.40379291533126455,0.920502258592982,0.10458532899659968,0.08080555347742713
0.14276790753460647,0.2831903323886819,0.26748108635613105,0.5574570893657582,0.403716806426199,0.9141194336755449,0.10640155166824276,0.08100537126253463
0.14287616261134273,0.2813876526296544,0.2664107699722184,0.5562961484069723,0.40346150669490083,0.9076797071134868,0.10829019032813668,0.08125201926673102
0.14297549458438893,0.27971926063347957,0.26558440788479415,0.5550296886228433,0.4030417355416272,0.9011850828340552,0.11033987804157497,0.08160339788525961
0.14303945150376388,0.2780338404825291,0.2650122543993387,0.5536100305265372,0.4027458556260472,0.8944904396902422,0.1125683811826594,0.08206130263117277
0.14304945103048367,0.27618666833223726,0.26459689751841214,0.5520385161886331,0.4027626614138403,0.8875240156134502,0.11493903379614617,0.08268083578010679
0.14300782830055306,0.27418655665666675,0.2641380317684116,0.5503232619199143,0.4028177962973637,0.8803645204290861,0.11748348559960656,0.083474433298603
0.14288343704082188,0.27204876857965526,0.2636513627987201,0.5486794346763609,0.4027290206439101,0.8730406282417441,0.12007138023874053,0.08430673169258737
0.1426733082049756,0.26982146663429923,0.2632188001326242,0.5471790630079763,0.4024425003962529,0.8655264381665115,0.12258467018000813,0.085101700137706
0.14240142836127567,0.2675441208528604,0.26280498035002264,0.5457103861096778,0.40191361779130486,0.8579578214956551,0.12504422891064754,0.08582676359425646
0.14208411537242702,0.26523447649680654,0.2623560008375448,0.5442400147863974,0.40122027514992525,0.8503444504254096,0.1274433308903592,0.08646420201109531
0.141743707803762,0.2628694231411265,0.26194068251030755,0.5430769961119776,0.4005508094406525,0.8426822481331488,0.12987589052540754,0.08702389379831839
0.14140828171917968,0.2604068502863333,0.2615847073568816,0.5422692700779133,0.4000184906066921,0.8351411969111654,0.1324584525625861,0.0874886193294677
0.14103782874931023,0.2578667451365864,0.26113206326707455,0.5413675897608241,0.39952426931090673,0.8277634281080346,0.13511514560866533,0.08785537087189378
0.14064091463666245,0.2553685904902929,0.2605071566667067,0.5402766192710684,0.3990001075720323,0.8205289109727576,0.13772652211445002,0.08817485361874425
0.14036616347165554,0.25297314872902743,0.25977156439177235,0.5391126129923407,0.39838763894906043,0.8134116609626404,0.14028534429862918,0.08849561493689694
0.1403155070227563,0.25060472347901996,0.25897092232702823,0.5380804471896538,0.3978049534543535,0.806313164018161,0.14277805369095728,0.08880391768146709
0.14043914013818953,0.24826442726548206,0.2581222021743024,0.5375899182078416,0.397598988983857,0.7991257971254581,0.14513157126283607,0.08910669156377442
0.1406023363456292,0.24594661115643493,0.2572751142947089,0.5374574991769596,0.39789397850947544,0.7917734437860195,0.1472961859748307,0.08943731430970515
0.14068955760256194,0.24358567641130446,0.256423719610814,0.5372131109154084,0.3987146692977494,0.7842369421615629,0.14926464514504476,0.08976082674414224
0.14067727747787598,0.24123257781836274,0.2555021677062947,0.5367682517775421,0.40036503573305726,0.7767254633411941,0.1510636304128571,0.09003042384545368
0.14058988965391003,0.23892267638452455,0.2545143970555908,0.5361588067903051,0.4029344629673501,0.7694390644495858,0.15273888541036879,0.09024818829699684
0.14041737049421915,0.23656940757864023,0.2534374950949178,0.5355864093000616,0.40611309321339034,0.7621276185904116,0.1542874836942741,0.09041616231748353
0.1401635860499089,0.23415687005570812,0.25226300291515735,0.5351235474676472,0.4097510368087273,0.7546321240936529,0.15566663254784072,0.09052966149364813
0.1398590566407442,0.23173008429218764,0.25113001440859967,0.5345987592860263,0.4136977883526919,0.7470881626327457,0.15692247986497462,0.09060431543402439
0.13947953764346807,0.22925189664617804,0.25016485293506313,0.5341757053956456,0.41775559708846255,0.7394248921674805,0.15813271693226671,0.09064842609027339
0.13900859636882215,0.22671356147827726,0.24928761165493857,0.5340041501751065,0.4217084547448642,0.7314743750653223,0.15925804167194843,0.09065659222106148
0.13848409012734322,0.22416694485831698,0.24831479603843243,0.5338460076015483,0.42536321320789083,0.7233503730840618,0.16025425595334628,0.09063705391358141
0.13791553898701314,0.22165498098848888,0.24727824240281157,0.5335069548170082,0.42867581070325395,0.7152354172979184,0.16113269461511967,0.09059103396385387
0.13731209183119955,0.2192454486699657,0.24637561396465413,0.5329951808479673,0.43170471986613845,0.7072038086060058,0.16194442935522818,0.09051972759601613
0.13671596342703582,0.21695628071626927,0.24560864821156667,0.5323922311028007,0.43453289002554357,0.6992931088265045,0.1627584347442188,0.09047110418559619
0.13612741125242164,0.2147042251304881,0.24481841325318807,0.5318029391672117,0.4370793967388169,0.6916594779238405,0.1636273138709319,0.09059800190279174
0.13550655855697827,0.21241629786594107,0.2439197658011796,0.531347627621382,0.43924704630771566,0.6845121958194913,0.16456790113954564,0.09097290218279128
0.1348286645796728,0.21011632448413475,0.24293165655900217,0.531014227790255,0.4410502097435073,0.6778704575983212,0.16561628802572337,0.09146431862909127
0.1341102344965747,0.20785385062160483,0.24190572884259165,0.5306707305864314,0.4427904814624811,0.671798937806028,0.1668670671159381,0.0920733994003975
0.1334005251352311,0.20560937309883603,0.24092484802128888,0.530224303071211,0.444676178964611,0.6660781398867334,0.16818988846708444,0.09305519542076716
0.13270652865838753,0.2033575329443285,0.2401217225833948,0.529900485701566,0.446685790151107,0.6602771307115238,0.16937307970926144,0.09445273558165644
0.1319814305721567,0.201094138164837,0.23950946116226857,0.5299416432197178,0.4489791388910592,0.6542779633421631,0.17042156635800104,0.09595910790711915
0.1312005386574958,0.1988151900909841,0.2389600134341846,0.5300443793956892,0.45161522640726864,0.6481485284517225,0.17148728092391682,0.09738092192898072
0.13036034545623665,0.19650350692828586,0.2384243785246889,0.5298916792173728,0.4545632416500079,0.6420207517406514,0.17271553685683785,0.09873385147780497
0.1294575531830563,0.1941426851435172,0.23788910139250835,0.5295883937899193,0.45756608891724954,0.6359272209445893,0.17405128322478913,0.10005969957724765
0.1285024397059573,0.19175719720577306,0.23734799731172965,0.5293151946051244,0.4602106431505175,0.6298255290981539,0.17541501381516778,0.10133830520335314
0.12750488676736954,0.18939721973079113,0.23699573457178344,0.528917261036544,0.46238957412481235,0.623701863782322,0.17681756784996736,0.10252368524915888
0.12646101574982982,0.18708398039776045,0.23694479408408212,0.5283335382199317,0.46414107035870317,0.6174427447168289,0.17816230077056747,0.10364549036341693
0.12536716130348,0.18478425165312318,0.2369949239550915,0.5277866139527229,0.46549538754496733,0.6111269605451887,0.17937688152058173,0.1047588878808152
0.12423323752519225,0.1824662368470265,0.2369678488336492,0.5272353014008656,0.4664952219345285,0.6049703357897225,0.18049253725119824,0.10585648229619368
0.12307545232016628,0.18015971233644917,0.23695386730806803,0.5265198606206928,0.4672686739906245,0.5988448646669869,0.18149911787734646,0.10688441306372944
0.12188927443188079,0.1778931494142216,0.2370593991433997,0.5255879411467089,0.4678716364175739,0.5926615037481523,0.18240707756682478,0.10781128533714392
0.12065033906445305,0.17564025590193968,0.23715880166950942,0.5244765938724325,0.46823739045050666,0.5866092591132815,0.18321982544581106,0.10862722400271721
0.11936882093115644,0.17340261280224584,0.23716532787296127,0.523388581675483,0.46843606476924915,0.5808353669779504,0.18390059868845188,0.10934294804462075
0.11808123751715603,0.1712017755523545,0.23708969347078893,0.5224576599884458,0.4685883894569943,0.5752263302240366,0.1844344173216721,0.1099821792984972
0.11683589715589979,0.1690248975650035,0.23691548401860335,0.5214773223564512,0.4686895456843883,0.5695731354313727,0.18485389590126575,0.1105543106768423
0.11574582763674698,0.16688641120382272,0.23666720927621135,0.5201832245024272,0.46868148579740904,0.5638430436199829,0.18524382969552539,0.11108176359964624
0.11485882148548406,0.16481345649860374,0.23636169945053606,0.5185768787527,0.4685422198915802,0.5583190526095707,0.18572547333060885,0.11156597040618255
0.11406662135037851,0.16275838531099746,0.23593487717666664,0.5167603224810482,0.46832438582946095,0.5533184648768809,0.18637460788754595,0.11208857439263063
0.11327895472532502,0.1606822888043182,0.235365682500688,0.5147778742038147,0.46820544300692263,0.5485692967306551,0.18710309667891903,0.11297501417101402
0.11250975695080427,0.1585880850003474,0.23472771146635382,0.5126988304922863,0.4682814981181473,0.5436306203994248,0.1877931267315354,0.1143891437363259
0.11181245568300574,0.15649195450409795,0.23409811425726357,0.5106029417085494,0.468383540944011,0.5384485796476235,0.18837884359934928,0.11616626134157264
0.11117122785566938,0.15442943449351018,0.23347044885954843,0.5085063352326958,0.4682629633347811,0.5331323564859777,0.18879735533614983,0.11815515808450952
0.11051071029218804,0.1523876837036303,0.23275831989079881,0.5063709506678981,0.46786938237878456,0.5278868071331647,0.18906889592410983,0.12024442135734147
0.10981232107870495,0.15036777076060068,0.23196608534236343,0.5042005347448849,0.46733538894968096,0.5228008420123836,0.18924639171291877,0.12234744109955234
0.10908506618226424,0.1483907546313873,0.23115147879329442,0.5019452175626249,0.4667946335226617,0.5176852296383865,0.18930032841220734,0.12445490322003346
0.10830415830094355,0.1464165641362345,0.23029620103670184,0.49956406430353195,0.4662546179683029,0.5124860235818471,0.18927613909816723,0.126658183407173
0.10745931100465467,0.1444135526677122,0.2293761013932609,0.49719856127531026,0.46550856690652986,0.5073723389180712,0.18929090341380908,0.12896436254191698
0.10656080446560309,0.14242502218400474,0.22865563729300625,0.49486368402699976,0.4644792367438187,0.5023721399545995,0.18928942669043647,0.13120627964602274
0.10563858178451535,0.14051243678136177,0.22846112657855824,0.49250018226250664,0.4632401050883183,0.4973181735395731,0.18916544086325857,0.13328427357098727
0.10474805155804802,0.13870777241567364,0.22872309935811333,0.4902319288828269,0.46179479948997487,0.4921173661786979,0.188924389427926,0.1351967756908152
0.10398898561092876,0.13705488320276193,0.2293679779861259,0.48817063581771636,0.4601536748606827,0.4868279217663079,0.18858496425344676,0.1369758750887331
0.10340320549766187,0.135575513128144,0.23027821088083664,0.48645639037091926,0.4583134532684256,0.48156577403019835,0.1881183382234769,0.13865239516620287
0.10287677112000149,0.13419669038398332,0.2311605778755238,0.4852696587936734,0.4563380509849253,0.47640836252066243,0.18753717547134496,0.14020911720775603
0.10236081009025232,0.13286188908518776,0.23208229759216709,0.4845418613072243,0.4544023984445184,0.4713427430298172,0.18692055991305115,0.14162968641735382
0.10192222494412231,0.13158385679536538,0.23320123294405123,0.48395957498292413,0.45263367014728934,0.4663497592839825,0.1863441729957815,0.14291864802757143
0.10155807663615789,0.13032124467586126,0.23432721264213224,0.48321617066441297,0.45096614618634356,0.46138427352894706,0.1858669965827951,0.14409384871891698
0.1011852505272588,0.1290612296859179,0.23531175251227873,0.4822859378860802,0.44922320367352775,0.45642982680037225,0.18555203957515423,0.14515241158725126
0.10083122747914963,0.12792526260252,0.23616004849898045,0.48130492673506087,0.44738305890503915,0.4515508961722611,0.18539255658479956,0.1460783254461984
0.10062925124950087,0.1270293966380606,0.23687720228485903,0.4802963488188533,0.44550520010906897,0.446695422655591,0.1852348542620057,0.1469968079978749
0.1007066285206447,0.12631726110305985,0.23753508000304238,0.47924231794291516,0.44353290556414454,0.44184033072384193,0.1849653462565746,0.14812124597590903
0.10112469040925844,0.12570801377436874,0.2381289364803967,0.4780522235672994,0.441432067500395,0.43709726634254104,0.18458246547105747,0.1494482896956893
0.10183479863159371,0.12533817673527692,0.238540633339527,0.4766930117467805,0.4391969282633761,0.43247931224054054,0.18412493808735425,0.1509945972971003
0.10282357636351752,0.12530467841517548,0.23874425932995533,0.4752067737067662,0.43679536624777177,0.4280724073289974,0.183656623272984,0.152849436828817
0.10409133095915217,0.12550601770649739,0.23882889130849763,0.4736004644077422,0.4342369321305815,0.42408558530417007,0.1832453014795453,0.1548037172280456
0.10553111181545943,0.12587162146248967,0.23885310624381137,0.4721215468435374,0.43165126017610844,0.42042420848079315,0.18297581050871517,0.1566773956194774
0.10698027634172122,0.12640068434048332,0.23877939053562697,0.4708862600128693,0.4291824353789596,0.41687040445413587,0.1828155032741439,0.15852565338625724
0.10834341432422417,0.12707222032325313,0.2385786412867561,0.4696110850904481,0.42706845783330477,0.4135900783306092,0.18265950050630228,0.16040129847348447
0.10960289027509915,0.12776572850786164,0.23825657271842807,0.4682989865661188,0.4254296671755322,0.4106213143905767,0.18247433598888602,0.1622210984635052
0.11078873683803445,0.12838598116726574,0.23797923075836555,0.4671266705590459,0.423906012016954,0.4076860012733755,0.1822146540698312,0.16388543396597532
0.11194981049534995,0.12896899267362236,0.23805917935338802,0.46612262420197237,0.4223268111302904,0.40476546132432345,0.18183714202875895,0.1653793962237856
0.11307269493562107,0.12952250448425928,0.23854098837159074,0.4653273061362645,0.42089658157071325,0.40197553337128883,0.18138740051822663,0.16670894670653041
0.11411116396952047,0.1300071484422902,0.2392462663810834,0.46461206645201153,0.4196971477913113,0.39946701193988415,0.18091580424117193,0.16789331845762148
0.1150277676797916,0.1304120774902868,0.24003758821141916,0.46379359499353257,0.41861934892061353,0.39739055285413977,0.1803702705883554,0.16892430506733724
0.1158135450546709,0.1307269929037169,0.24086364906473315,0.462763506795711,0.41753190656996886,0.3956224096954384,0.17969436569692657,0.16978751887577423
0.11648010866193506,0.13096218826760853,0.2417622575266265,0.46163228174063203,0.41635605821602917,0.3939302547297415,0.17891446542708633,0.1705295330190711
0.11710554106459425,0.13112758681025044,0.24268259171660295,0.4606527872932565,0.41510346681937915,0.3922255020533226,0.1780759577044595,0.17119501374664023
0.11786486066626863,0.1312862355504495,0.2434757279992677,0.4601937888707202,0.4138990238221897,0.39053708876289284,0.1771821989191794,0.17175990062359142
0.11883174759663753,0.13152519204845148,0.24423334560943583,0.4604871770205901,0.4128755187678018,0.3887990753226648,0.17621639508394504,0.17225476354317987
0.1199761904126447,0.13187416549782663,0.24509666166360825,0.4610720714757747,0.4120795645204274,0.3868481462602555,0.17520935325031356,0.1727824570427474
0.12126931043933281,0.13235478187132688,0.24594658819897947,0.4615140246545652,0.4113750078728746,0.3847556111906554,0.17426412701689387,0.17337447474230958
0.12261648088297573,0.13298760026359252,0.24676282866253388,0.4618388794441472,0.4106047802806369,0.382756966440345,0.17346586006446943,0.1740341357474523
0.12400736634991602,0.1339927180296053,0.24757948866974155,0.46208484065415417,0.4100064875621982,0.38085674739936703,0.17278219294221617,0.1748982687052375
0.1255122698303792,0.13544658938830068,0.24843587728051617,0.4621949256623425,0.4099810788763485,0.3788853625348776,0.17213526010423452,0.17605744306328447
0.12705123813680055,0.1369940118311095,0.24950996200915865,0.46227522218101463,0.41072431980649227,0.3767809481567804,0.17149734596938276,0.177303825627976
0.12849427203262295,0.13838873168500473,0.2507778737141841,0.4624874100867188,0.41208842889410785,0.3747920112656808,0.1708887323458107,0.1784184728157945
0.1298174035008922,0.13962935237591234,0.2521564198043586,0.46285898278151494,0.41367738105344254,0.3731561481754307,0.17034216328936794,0.17938597537871662
0.13103125161542023,0.14072805870093272,0.2536929492509177,0.463616663653791,0.4154397556744396,0.3716456443855278,0.16980866856981114,0.18021179361916734
0.13217950926094216,0.14166989914336775,0.25538579921102117,0.4651173558012595,0.4174465464439931,0.3700826757289299,0.16921464958404608,0.180867857571352
0.13330403391347273,0.1425008969557706,0.25715968268978956,0.4673941814045203,0.41955816137768565,0.3686248080277031,0.16854993807330435,0.18136759669879357
0.134384713402395,0.14332535598813465,0.25882884493519204,0.47003011504093944,0.4216276015361988,0.3672488235965449,0.16787842139867606,0.18173737969983786
0.13544246761266177,0.14419625206236752,0.26026919214861993,0.4724453862217464,0.4236413298594813,0.3657318560279768,0.16726121718137246,0.18196912507976915
0.13647058564425227,0.1453179909792544,0.2616564260804092,0.474567020886034,0.42557307943627487,0.3640480666954991,0.16661632962323172,0.1820886655731608
0.13752285042733145,0.14705300249584086,0.2632656396725986,0.47663973948942356,0.427290828697645,0.3623066199629909,0.16587872479681068,0.18214756346215433
0.13884457704170694,0.1495200519879163,0.26507894695806367,0.47861686498750267,0.42878216107077793,0.360491644802354,0.16509325968897995,0.18217514100580925
0.14052306893632843,0.15245762355660808,0.26696538096815126,0.4804672129459345,0.4300822198315383,0.35862146063975187,0.16430288817292604,0.18223290623412955
0.14243422666061967,0.15542121889329683,0.2689600583774548,0.4822413079366126,0.43113788831681144,0.35691422273155393,0.16359550392026545,0.18236629321169703
0.14455940835803327,0.1581527796809874,0.27097611814229317,0.4841145856654184,0.43191196596988524,0.35540461398675893,0.16300829926886617,0.1826186885977116
0.14684714588135536,0.16069318191116966,0.2729839408704571,0.4864352830547538,0.4325563474075131,0.3538314373419296,0.16245638711398536,0.18300473491507116
0.14908758786307125,0.16318199911858827,0.2751758387587414,0.4890680551853923,0.43320976572412256,0.3520853128055061,0.16191870874701436,0.18339121835382746
0.15115359346099908,0.16562575615860692,0.27756175430231683,0.4917159885888267,0.4342255529461624,0.35026235923272625,0.16142859448474312,0.18369082938930711
0.15306412035076497,0.16792376257676214,0.27996380390434344,0.49446278540501265,0.43639598162703586,0.3485615679466122,0.161004508402535,0.18393379773801036
0.15495111370234627,0.1701603650303899,0.2823187938250232,0.4972680677657102,0.4396821517918745,0.3471531070365534,0.16062393272405723,0.1841156643582737
0.1570076670953095,0.17261019673301156,0.28486718986179693,0.5001733874620605,0.4436045037649242,0.34608580626560986,0.16022517048136153,0.1841854212927968
0.15923779851085046,0.17541540331453792,0.2876917303401715,0.5033654850086499,0.4480781170100019,0.3452723249836174,0.15976259529615425,0.18409438543732076
0.16147803489134618,0.17838399843353275,0.2905369937751316,0.5069291056401093,0.45312151842980314,0.3445018398686841,0.1592260549228454,0.183876375961232
0.16367897262786685,0.18123857766988224,0.2932856714824013,0.5107644324309932,0.4594271610904529,0.34379328418211874,0.15865939733694245,0.18369758404497913
0.16596054180464936,0.18388773646251738,0.29602622445354093,0.5146420047345992,0.46717479928181943,0.34348563442534497,0.15831185869688374,0.1838172302614338
0.16839726721601378,0.18645819120951168,0.2988767071052842,0.518462639809577,0.4753716276573107,0.3437222286162775,0.15842831868276466,0.18446961037913245
0.17093993811465716,0.1891314012511911,0.30186970606361063,0.5222050654967239,0.48339516262927473,0.34409808811101344,0.1588012944694553,0.18559082818508066
0.1736483552541406,0.1920808411684075,0.3050830559481531,0.5259225550484367,0.4913454779930039,0.34423907060513015,0.1591117248483459,0.18680507168310123
0.17653275897069898,0.1954320645673205,0.308891864173895,0.5294721980614685,0.4991311626773728,0.3441418749716538,0.1593352842956068,0.1878998614655111
0.1794690556064938,0.19905740075628806,0.31340698218625457,0.5327910020340036,0.5063239532793606,0.3439239206588462,0.15965605283207443,0.189287174804773
0.1825056429121442,0.2028678922748592,0.3180250511979863,0.5359927695548949,0.5129159267990276,0.3436642113115167,0.1602099014636092,0.19147446476336064
0.1857087764881541,0.2067916405793938,0.32236941140820863,0.5390794954957887,0.5194015311523081,0.34357207676124885,0.16092599309338088,0.19420421912284216
0.18902132474581332,0.21069958864311789,0.326548052304719,0.5420197693331243,0.525986391893401,0.34409496865533545,0.16169629658422188,0.19709587340138673
0.19239521914646285,0.21470899738650187,0.3305240255035808,0.5446633397447683,0.5324325160007765,0.34519896943275025,0.1624374809593498,0.20021314581162525
0.19584459439492632,0.2189453059560008,0.33416189461233975,0.5471141515302335,0.5387463950910759,0.3463362559722645,0.16305649270422454,0.20351647847484414
0.19939626999006937,0.2232541591966977,0.33762661720652637,0.5496389673799774,0.5449410523074188,0.34723015969950166,0.1635714152841333,0.20693442315227645
0.2029019663817144,0.22746778176153362,0.34139707537277403,0.5523257371588619,0.5507616217903215,0.34797731153355316,0.1640932501729219,0.2106659639981403
0.2062198920937704,0.2318001945744603,0.3456301776381385,0.5550979694983077,0.5561585670415765,0.3486903427110554,0.1646211931887695,0.21475404429859946
0.20938843347477717,0.23658972239541742,0.3501212116389275,0.557828926921584,0.5612386901645661,0.34926975829201595,0.16504080797917053,0.218911785213288
0.2123976512857209,0.24187205029052755,0.35476102944539717,0.5605110805655087,0.5659506809621367,0.3496405738805081,0.1652962233919219,0.22290482307351997
0.21516464653152126,0.24755380368835425,0.35933810738795735,0.5629768129610706,0.5700987234067448,0.34985829814550734,0.16544113002002514,0.22670971642864693
0.21764378632380135,0.25345836270932126,0.3636434884552197,0.5652398344268889,0.5737166918584184,0.34989594390348006,0.16555373576646423,0.23038445559853693
0.21993210375486014,0.25930959235354234,0.36773162470278165,0.5675541495352261,0.577038078999004,0.3499485070757604,0.16566207941171776,0.23393783483350583
0.22226969043355066,0.26498381395616616,0.37200248125164476,0.5701225595078769,0.5801059963452543,0.35024929705504887,0.16580635729702625,0.23730483788776305
0.22475243782089188,0.27049661344527803,0.3768986393916393,0.5730318319924399,0.5828950671133696,0.35086078191898185,0.16617207527739364,0.24043013977098307
0.22731815319881804,0.27598340245918984,0.3822143640784854,0.5760035934287207,0.5853679146015653,0.35204299378046544,0.16683617470692347,0.24337471428103918
0.2301279029026184,0.28166733661373755,0.3874716456177239,0.5787781929730557,0.58758269501353,0.35387027890452094,0.16757778330071912,0.24628397740335134
0.23324191495921298,0.28776836962521724,0.3924205678604305,0.581247858637108,0.5897156336200561,0.3559919148526218,0.16825909773678724,0.24914996897894084
0.23633640697475364,0.2942825436151067,0.39698952164954243,0.5834435152840323,0.5916746243909523,0.35796516085072677,0.16906260117384503,0.25180465364451265
0.23928889250925028,0.30101846712242136,0.4013978725622196,0.5854618679757978,0.5935522525829193,0.3598614198788437,0.17020953043676312,0.25428808086356286
0.24233001464680332,0.3079399427615953,0.4058021207728095,0.5871348382919233,0.5957915141578504,0.361976388772917,0.17157687894841545,0.2568660474762103
0.24558670464002672,0.31502553892190466,0.4100511015578344,0.5883755308223803,0.5983812179484386,0.3644255544674903,0.17289968175337408,0.2596523034603121
0.24884587195170477,0.3220406463511058,0.4140739146533264,0.5893820537228946,0.6009292213985058,0.36747283955916565,0.17411173802112187,0.26246795851956195
0.25189031187595684,0.3288678943712049,0.4179433642476405,0.5903575040812181,0.6032409840465788,0.37087535948597367,0.17527686381331656,0.2651351819351627
0.2546796147840786,0.335535599205675,0.4216356354314183,0.5913825219104506,0.6054916890436549,0.3743803837370375,0.17643608942614164,0.26764447705831823
0.25719543128220784,0.34184367814686195,0.4250813175791425,0.5923603602431994,0.6078155359015944,0.3781539087817702,0.1775684942388997,0.2700537719408134
0.25948733294880616,0.3477080658081528,0.42836803140720553,0.5930714887996239,0.6099463504065091,0.3822140532358841,0.17861397693305567,0.27248543337957665
0.26160963929341374,0.35328278672626195,0.4315529996149941,0.5936070427065319,0.6116497695201095,0.3866848469002321,0.17958867738576823,0.2749428277464785
0.2635342415831163,0.3585951045779619,0.43447041995588276,0.5942883745943723,0.6131098705859308,0.39139035125853217,0.18052816029264587,0.2772820592885567
0.26524112941198563,0.3635443184655331,0.4370756148601686,0.5950015164392637,0.6145965698889999,0.39610187325007645,0.18135281761821012,0.27945920286993503
0.2667113721421875,0.3682684625308241,0.4397406788717915,0.5955170749635462,0.6160069869422213,0.40097506559625584,0.18202004142702158,0.2815193160691189
0.26796720598242263,0.3730000790620894,0.44287496650717745,0.5959701718018084,0.6171291244914094,0.40591796649182016,0.18254271499304117,0.28341200805524513
0.26908359546877536,0.37773427525956454,0.4463146560409684,0.5964834310478037,0.6178540795771318,0.410728881933857,0.18300684678013932,0.2850223798907476
0.27013238207882656,0.3825198560892307,0.44950159274295753,0.5969400815249625,0.6180914371248061,0.4153687871681568,0.18350813606719985,0.28641463309331905
0.27118903654407583,0.3873031667119221,0.4522029891887032,0.5971348777968644,0.6180961655722812,0.4196601133752549,0.18399768248404766,0.287790794835397
0.27220539514498077,0.39185236536034845,0.4545509983672019,0.5970188374338842,0.6185269071120285,0.4236138655164688,0.18455575515655756,0.2891435498421916
0.2731019963125373,0.39625346516889604,0.4567994046860221,0.5966323240995255,0.6195118239190137,0.42747490461925053,0.1854061598429642,0.2903121463862376
0.2739299803323027,0.40074934733681694,0.4590907708634531,0.5959607208921114,0.6204107749178885,0.4311699865688914,0.1865487437655297,0.29133020292844275
0.2747851330455342,0.40534492439215236,0.46120706732149946,0.5950839247008834,0.6208455286005277,0.43456235085021877,0.18777581412677305,0.29241722904782574
0.27565876225117236,0.40997793959203416,0.46298002398955024,0.5940785584907526,0.620855895411161,0.4377287368903338,0.18894879571564477,0.29366278148379665
0.27636870083361703,0.4144751442781483,0.4645365106965077,0.5929511800589808,0.6205004233593578,0.4408764865534407,0.1900755925465957,0.2948715620479974
0.27687457510612296,0.4186107760710025,0.46596466319215946,0.5917014940659414,0.6200694777625954,0.44404348648137554,0.19121061142211918,0.29587016690250595
0.27729173983034017,0.4223029515525557,0.4671617043530757,0.590295906315804,0.6199612257686841,0.44689823083893937,0.19234571329993583,0.29672025305483907
0.27761696129702634,0.425781327676509,0.46823681107348897,0.588889639722236,0.6200815173606854,0.4492910701321985,0.19339288130074836,0.29756117296071916
0.277827177224968,0.42937276302564886,0.4694349385781635,0.5876646022078601,0.6200525772627726,0.45143365959358484,0.1943081240546558,0.2983925130970021
0.27792718238199404,0.43308893502246454,0.47064260885412373,0.5865405554231498,0.6197739432090371,0.4534885825726584,0.19514977857254026,0.29909353998478744
0.27795509934514334,0.4369542651146112,0.4720387620409282,0.5857348323645206,0.6194171978836748,0.45546435078955416,0.19595365993557953,0.2996424959454453
0.2780009512541256,0.4408515644437481,0.47394147122050906,0.5854015265809851,0.6190462537175274,0.45729563699962217,0.1966404020803058,0.3000588313487134
0.27809065827161994,0.44456173061789456,0.4759859027260769,0.5850992152289547,0.6186286560922137,0.45887997660337854,0.19714088694516552,0.30034790745116685
0.27812193869726903,0.44804919810238175,0.477849684213402,0.5845861489174932,0.6181334057886856,0.46013296805560255,0.19750952707957478,0.30056846302277523
0.27811067324498323,0.4514473107649184,0.47998682563371353,0.5840926181018642,0.6176713307057345,0.46119483397420624,0.19790547301759373,0.3007566925522849
0.2781790688528805,0.45496393555508113,0.4830854096808647,0.5838188289381012,0.6174420138986007,0.4625943592317137,0.1984007013844411,0.3009071331328925
0.27830353985013,0.4583966346244518,0.48715415174101095,0.5837020089547065,0.6172416692688996,0.46505766015240646,0.19885670053648438,0.3009544221511551
0.2785818185498395,0.4614381871337051,0.49193969962435485,0.5836619041348468,0.6168753385420718,0.4689306020916233,0.19915438781847752,0.3008227650904656
0.2790804978700003,0.46410265444940413,0.4972190767279629,0.5837687649337974,0.6163505885325922,0.4737403449520881,0.1993471571631946,0.3005936108916038
0.27956219612596056,0.4665977436047146,0.502424163862006,0.5841565066358453,0.6156079506312586,0.47874619607900204,0.19965333234459123,0.30035833505938697
0.2799068390287996,0.4689952658438321,0.5072389243711001,0.5847122595375562,0.6145573211021212,0.48372753591973744,0.200174664835659,0.30007731503642965
0.280200281219284,0.47112999755785534,0.5117759613834274,0.585160747780125,0.6131529248574619,0.48872742215790216,0.2008076980194622,0.2999132729034618
0.28045115034656526,0.472997925801297,0.5161566247418119,0.5854660839796255,0.6114248630613678,0.493479469552448,0.20150016496240014,0.3002089532192022
0.2805674509232855,0.47468907295628326,0.5203701087110854,0.585627508260786,0.6093487536372821,0.4977291082581251,0.20216189695527484,0.30097083649230494
0.28055491852312286,0.4763900093462164,0.5242390896810136,0.5854772838538725,0.606928353898412,0.501641159345601,0.20270667336211692,0.30185700190759956
0.28049270934842346,0.47825913032085504,0.5276745139189353,0.5849889831722994,0.6043748548477696,0.5055073263699826,0.2031323647417,0.30259375491814783
0.2803696703198706,0.48002657046778563,0.5307387072025528,0.5844719511735499,0.601803480998832,0.5095933089121685,0.20348385083849438,0.30307990188340134
0.2801083322158641,0.4815145213493453,0.5334314716729076,0.5844293821373105,0.5990369708600919,0.5139725272463497,0.2038308765453222,0.3032790621978414
0.2796480977695812,0.48286741110272025,0.5358198362015336,0.5849409880574611,0.5960998471345981,0.5185812088881856,0.20413987089242983,0.30321688687791615
0.2790381703366751,0.48403631522609114,0.5380083264352314,0.5855141758148109,0.5932296821080516,0.5236656850295273,0.2043319568188222,0.30293822240652063
0.27839930509048044,0.4848141500235257,0.5399567136493179,0.5859785670592914,0.5904196510086311,0.5292605442406884,0.2043986573796526,0.30251291922632423
0.27774006229975057,0.4853174482924637,0.5415933193450045,0.5864721604301416,0.5874358451476116,0.5348367591094223,0.20435204292093678,0.3020279917693157
0.2769951044130561,0.48578497691965694,0.5428766247292761,0.5868661772486519,0.5841014900953706,0.5401423760672717,0.20419039674596115,0.30145975543729603
0.2761421316860639,0.48611754964099546,0.5437806282604161,0.5869974154939721,0.5805353278501926,0.5453779247401352,0.20392555972341211,0.30080569316946504
0.27516660367492585,0.48623379266235395,0.5442607666574196,0.5868571099921975,0.5771186022805224,0.5505012797250065,0.20355558587724568,0.30015039755057976
0.2740681020376226,0.4861964822850938,0.5443684257684084,0.5865708577127164,0.5740286388102975,0.5552783618796652,0.20309877316171204,0.299447753144638
0.27283965938078575,0.48594546785471804,0.544393812355666,0.5862188228198186,0.5710068404192389,0.5596594333929079,0.20260613797735452,0.29859352064787115
0.2714613646298208,0.4853899891899331,0.5446747748787124,0.5856905426307976,0.5678592695869575,0.5636441018779664,0.20207971264480495,0.29760848413665325
0.2699210025990126,0.4844836398789056,0.5452667952370654,0.5851345911761137,0.5646345464250263,0.5673126061513293,0.20149472997316498,0.29652602267903194
0.2682204173036158,0.4832559144006621,0.5459418339102909,0.5847399143989536,0.5612722774130546,0.5707286314736033,0.2008476134584052,0.2953179852817418
0.26638158517253535,0.48174870768908234,0.5466020281628446,0.5842591905807908,0.5578418594315058,0.5736859011646314,0.20011494414203873,0.2939776233881793
0.2644323470425168,0.4799154464956614,0.547287501428115,0.5835963338056753,0.5545568304122261,0.5760009173779793,0.1992744033631859,0.2925454111390723
0.2623994404798454,0.47774532602957076,0.5481034686587642,0.5833883785378459,0.5513003825508971,0.5777595286753917,0.19834486221579767,0.29106683844759923
0.2602684061861408,0.4753152536564857,0.5490835870273896,0.5841238897128007,0.547907268854487,0.5791045637164928,0.19735782955792885,0.28951191766501116
0.25803219390117843,0.4726589298728312,0.5500325701712315,0.5854602897219704,0.5444535636939641,0.5802198453129725,0.19634350049289104,0.2878052363257203
0.2557242770106322,0.4697352636110648,0.5508706234802747,0.5871161096793469,0.5409786642542909,0.5815221241744594,0.19528398262974378,0.2859750949399465
0.253336627771252,0.46660549688464675,0.5515683286995816,0.5888619196471748,0.5373397553634278,0.5831290499489161,0.19412877497125217,0.28410885696188426
0.2508549583183461,0.463428698643311,0.5520709376639636,0.5904246853565188,0.533400386412311,0.5845912453978177,0.19286977921511517,0.2821965208421298
0.24829243627238962,0.46027683924124285,0.5523329556693406,0.59189776989119,0.5293378803993672,0.5855859765594983,0.1915327789529867,0.2801683905793563
0.2457152227286616,0.4572053654804869,0.5522241799155463,0.5932903342503411,0.5254423205730262,0.5861459692720636,0.19013582667064993,0.2780113983292324
0.2432267335730555,0.4542338072709892,0.5516672253941483,0.5945042438005554,0.5217637006134176,0.5863230048036815,0.18869624823907624,0.2757465983066486
0.2407987718307848,0.45120691455475476,0.5507088498272865,0.5954792307293357,0.518235970997072,0.5860533226992408,0.18722397180926598,0.2733741760068136
0.23832407597882632,0.44804978278805985,0.5494008525189541,0.5961110752272727,0.5147289472535299,0.5854769432003153,0.1857017818425293,0.2709077846747279
0.23576695034584916,0.4450519297645813,0.5478198631198972,0.5964675666304543,0.5110779665357255,0.5848283871925051,0.1841266310208198,0.2683605749566658
0.23315350363116136,0.44265060102511133,0.5460595026568503,0.5968545085847108,0.5071858342071188,0.5840646156619598,0.1825157134440909,0.2657585759534478
0.23052882218283335,0.44083556405536894,0.5440423480486207,0.5973437497488697,0.5030266717106797,0.5831245132829385,0.1808788245963013,0.2631200525782833
0.22790261413770305,0.43930228299885254,0.5416879027006948,0.5975492728579854,0.4986094126476376,0.5819631627215394,0.17919861554271582,0.26039565173890633
0.22524405150163584,0.4382138288722502,0.5390130970953275,0.5972759442576973,0.49408325661056723,0.58061135768265,0.17747190500070362,0.257558305818641
0.2225236771880761,0.43786616181042043,0.5359943195407789,0.5966050105514203,0.4898384049627254,0.5792458285527913,0.1757291245994256,0.2546156622719111
0.21972005983652618,0.4379934171863348,0.5327229777260568,0.5955744558013814,0.48611411168636426,0.578095812502675,0.1739860271274556,0.25156845192688265
0.2168328376428996,0.438113502923963,0.5294338419239325,0.5943680516044714,0.4827375738506995,0.577226599888907,0.17223093730462324,0.24843753266762275
0.21388848905750565,0.4380193500758164,0.5261576046630156,0.593114951612026,0.47939607117812943,0.5762724716261602,0.17047275665579442,0.24524293678685716
0.21091908298058276,0.4376267562037212,0.5227096617021089,0.5916779898026888,0.47592415832328056,0.5750642041785398,0.16875343263301057,0.24201725943152363
0.20794194699898613,0.4369022678026769,0.5190807456461578,0.5900732293841402,0.4724110857932988,0.5736875535013969,0.16705956465951532,0.23879170929049107
0.20494023339835674,0.43594792463990706,0.5154226294444796,0.5884031149188458,0.46893557937931535,0.5719907030797398,0.1653381941972901,0.23552927917348296
0.20191122224047345,0.4348615541196093,0.5117467996599887,0.5865517516677506,0.46537232884698027,0.5698621726893105,0.1635854923225882,0.23220129164606362
0.19891919768112923,0.43367000034919917,0.5079572855268215,0.5843883983727746,0.4616550418285311,0.5676169584971343,0.1618111986593814,0.2288204945060312
0.19599218484412217,0.4324391581624628,0.5040158842039054,0.5818417841498822,0.4578274307575011,0.5656233402871196,0.16001127852059582,0.22537907470063573
0.19308338272414102,0.4312989563178812,0.499979803000607,0.5789510805659209,0.45397153072147445,0.5638388795633336,0.1582353849257106,0.22188298913928037
0.19020818012151966,0.43031341625300507,0.4959172265226243,0.5759279239395485,0.4502527565798061,0.56213586271876,0.15651761805214312,0.21835804650472032
0.18742806633673054,0.42956368581543913,0.49185328617800117,0.57289465007832,0.44669548340101356,0.5606527996929849,0.15481699459573547,0.21480221797232762
0.18473490722767819,0.42906029926507383,0.48774516303146087,0.5699816602011976,0.44310223459709486,0.559455109400026,0.153114353547612,0.21122027865524226
0.18206735054982676,0.42851891326991326,0.4835385696486163,0.5673470024138012,0.43941786900160623,0.558384455892464,0.15144485614691236,0.2076368792284742
0.17938005739240176,0.42773443724126703,0.47932207783116326,0.5649343233417806,0.4356967049142375,0.5577439061569726,0.14981535983993743,0.2040488567323892
0.1766898517486178,0.42677836592712437,0.4752071637488178,0.5628098513895725,0.4318570166047739,0.5580101484815209,0.14817889782192045,0.20045319012122845
0.1740395731311971,0.4256724511618635,0.47135384879314046,0.5611369479852341,0.4278742319035035,0.5593440986013805,0.14653066674257473,0.19686705487511502
0.17140998727083873,0.4243239829689398,0.46787483213219977,0.5597638856184732,0.42383864582776953,0.5614573756682613,0.14489282716641486,0.19329349898073706
0.16877598981718875,0.4227247458261372,0.4645566282824832,0.5583379762428846,0.41978319284863125,0.5636588492578775,0.14325313683823737,0.1897354258259257
0.1661804311632241,0.4209406688246457,0.46121493166263583,0.5566288846246319,0.4156591639566084,0.5656350074006533,0.14158651538473446,0.1862156555427888
0.16367763437946406,0.418981506837672,0.45796765059741246,0.5549514347782893,0.4114066611540723,0.5675207667516863,0.13988237024198685,0.1827359217429778
0.1612860425291109,0.41687013176916937,0.45492747839707165,0.5537872598380124,0.40698188533180885,0.5695254997082704,0.13814397729497724,0.17927110023250575
0.15904324770881315,0.41478903144573004,0.45194125897288095,0.5528811703049988,0.40236985086405086,0.5715351254068378,0.13638118908898547,0.17581720208805773
0.15701180856344749,0.4128726184907168,0.44882232402381156,0.5519286435255598,0.3978037844348675,0.5731329619044369,0.13462351142839726,0.17238377309273759
0.15513101394415496,0.4109751813339637,0.445579452011338,0.5510262204535573,0.39364713821193337,0.5744423367029219,0.13292590678649222,0.16897323848920834
0.15326241409798394,0.40893057835793195,0.44223453147888986,0.5500388759150731,0.3898727613667513,0.576029455363405,0.13130077544799537,0.16561463984150832
0.15136048141984218,0.40672712091935564,0.43873505280001407,0.5487372451079099,0.386166817861086,0.5782350714666488,0.12967967740875824,0.16234239248736765
0.14943518658085364,0.4043805255008597,0.4350576812561795,0.547082754766164,0.3824429942817157,0.5811638970889808,0.12804394460071344,0.159169274971368
0.14752951928883265,0.4018925918868128,0.43122706959315704,0.5451123940352128,0.37877920824057276,0.5846345856181333,0.1264425938717828,0.1561274726884248
0.14567789617365492,0.399265178102582,0.42726694718258035,0.542935395096468,0.3751095283371848,0.5883193710194895,0.12486899115102572,0.15324764559804138
0.14382626866490675,0.3965135679980775,0.4231934512850517,0.5407366742480741,0.37139095185992893,0.5918911521601015,0.12331676387090298,0.15056565086803372
0.1419429948110109,0.3936525011469068,0.4190889868914734,0.5385259841232009,0.3676492515849007,0.5953848212336061,0.12183996934291164,0.1480621088178533
0.14004463993481495,0.39062932272705475,0.4149789202397537,0.5361054005185172,0.3639625902558108,0.599428879478299,0.12043675528786504,0.14564476415634842
0.13813369214261317,0.38745399619716536,0.41085409088225916,0.533473009643718,0.3604925982181877,0.6045103231932601,0.11905847720355396,0.14331889080809254
0.13622591548269453,0.3842231163337767,0.40680604001535586,0.5308545078021203,0.3572064660605451,0.6102248100405404,0.11771206805806346,0.1411429328357293
0.13433638589424016,0.3809489024430307,0.40286876903367486,0.5283053070570208,0.35392554165162526,0.6156099656944146,0.11639744281660275,0.13909241835434116
0.13246613464686816,0.37756953916559344,0.399027893126318,0.5256510221204557,0.35060596452598203,0.6202336296800054,0.11508105968362464,0.13708364424216712
0.13061612958300234,0.3740393708336965,0.39522275785107464,0.5227650630248974,0.34733953663237366,0.6241912893144618,0.1137575799804113,0.13508999214287834
0.12876721907735986,0.3703750449870013,0.39142205389607543,0.5196736555952046,0.3441672175531697,0.6276484708674914,0.11243527578716983,0.13313278751572494
0.12690108270715544,0.36661267310725587,0.38776966306664623,0.5163753405089855,0.3410411786579388,0.6307907344419139,0.11111537262088907,0.13120565008961294
0.1250336425890204,0.3627601482445853,0.38428941018651347,0.5128756075709201,0.3379356829545556,0.6336153596519978,0.10982578424063641,0.12933587759933318
0.12317344422747566,0.35879836366654855,0.3808300837441825,0.5092267041540594,0.3348060341903746,0.6359595880900706,0.10858649615499888,0.12754284018415263
0.1213219688252345,0.3547425782030588,0.37733394052526037,0.5056459000209115,0.331729848940411,0.6377484294726451,0.10735640322680809,0.12577144664988738
0.11948731075007016,0.35063422215981727,0.3737725259839865,0.5024078169848359,0.3289685259491334,0.6391313249957998,0.10610954962798545,0.12398903682975798
0.11766382447394544,0.3464461166458501,0.37015880084471225,0.4993535968183537,0.3266180236078572,0.6402649855137694,0.10486123938154127,0.12222455407058294
0.11585278497120147,0.3421322829954526,0.36654532883377283,0.49619738809774055,0.3246828162839941,0.6410588580744926,0.1036194269060666,0.12047892282372544
0.11410888742707559,0.3377825810720822,0.36286872798636566,0.4928931823555793,0.3233539896806134,0.6413664792805742,0.10237165681474712,0.1187329513049241
0.11251781512458953,0.33358328970060347,0.3590818035400076,0.4894439150439919,0.32261984752655953,0.6414025755097336,0.1011060207377851,0.11699502587939323
0.11107446291939682,0.3295452986475954,0.35526655128222956,0.485966195319296,0.32232822266068456,0.6417605894012021,0.09983120291025681,0.11527316070375776
0.1097270032246122,0.3256253810920927,0.35150811706793417,0.4825515345391459,0.3226005714908078,0.6425331612236583,0.09856220500084906,0.11360843593443772
0.10845251192821075,0.32190910782816995,0.34786114795543444,0.47916037330589384,0.32332520545425464,0.6433003726960538,0.09732005709626658,0.11205346327816008
0.10729585021091137,0.3183979030024844,0.34437780863035555,0.4757949643654295,0.3241341006985706,0.6440416582033343,0.09615827924172121,0.11060497453848332
0.10634661767352512,0.315106302801312,0.340994177698287,0.4725242972468419,0.3248222359771821,0.6448443461326496,0.09510124428929201,0.10921962501447095
0.10552985708850993,0.3121081732947667,0.33762227147494006,0.46967502419239326,0.3254008806776625,0.6455044145921572,0.09411867718076554,0.10786257860379257
0.10473362497576448,0.309493945140328,0.3342514638996082,0.4674455342892922,0.3259344078007593,0.645967250458386,0.0932082904232794,0.10652054359063437
0.10396448390880418,0.30724277331299144,0.33083815984971704,0.4655101785341522,0.32629054382121636,0.6464214986581258,0.09235445433618762,0.10527439473376661
0.10326211489187509,0.3050335001916627,0.3273941873472354,0.46353043164768915,0.3263763643653957,0.6467734904741073,0.09159565148439747,0.10433511878321214
0.10265772412036749,0.30271266097952565,0.32399106360752133,0.4616237952450322,0.3262570211289778,0.6468000073262553,0.09100203014422616,0.10373040270655448
0.10211420754995647,0.300461179358661,0.3205968692216398,0.45992265203204064,0.3259682888104404,0.6465820271010061,0.09048675378826034,0.10323902699798441
0.10158264286322308,0.2983718183230263,0.3171409475352253,0.4583194250632489,0.3255244931433077,0.6461972447298953,0.08995999789408414,0.1027228216107991
0.10106302386703311,0.2964395498527962,0.3136159455534152,0.45675123348471663,0.32500634656261207,0.6455529909915875,0.0894495136860099,0.10216999200662026
0.1005419611962914,0.2946460408562629,0.31002826841637776,0.4550308620600465,0.3245914151309361,0.6446143618646157,0.08900188857532892,0.10162277918584861
0.09997321896153483,0.2928131580675865,0.30639747533759126,0.45304623770009705,0.32438927530766115,0.6433883700534865,0.08862150904439975,0.10112826904180587
0.09934604631737096,0.2908307208379397,0.3027423171847166,0.45102471042673603,0.32429058579274567,0.6417817116345131,0.08826570435485358,0.10064453300304643
0.09868364579217917,0.2887673157574507,0.29904732373384413,0.449250645634593,0.32444472323988693,0.6398525958300095,0.08790032031043517,0.10011808224968792
0.0980149315821762,0.28675548660594286,0.2953044214527021,0.4478620932515851,0.3251347338913397,0.6377439310194097,0.08751943999552576,0.0995913969856678
0.09742774106167838,0.2848484220090047,0.29151930581625757,0.4469974178298153,0.3262965487816603,0.6354053819364345,0.08715084835329068,0.09912516947027913
0.09699932985558385,0.2829297492129897,0.28769077959523126,0.44667480411640714,0.32784168383362394,0.632809080501451,0.08684116889392214,0.09875065231568345
0.09666303801502373,0.2810419407485873,0.2838043675893867,0.44657013962884745,0.32958484077935707,0.6299152466142705,0.0866616859818972,0.0985912548279449
0.09630152581890196,0.2792991391445048,0.2799666266971114,0.4466473103253787,0.3313953842339671,0.6266526863494809,0.08665371671225147,0.0987046421267849
0.09588280849738338,0.2775830642790003,0.2764332132022243,0.44743990209977186,0.33378345633249634,0.6231943499389307,0.08678975756404568,0.09896518929960943
0.0954900076694993,0.2757604923841689,0.27325448702748595,0.4490297214059121,0.3371228115208211,0.619725918705058,0.08707679095638415,0.09926596046548525
0.09520260777359447,0.273837811006245,0.2702308969072244,0.45087914223631526,0.34110144843309553,0.6160974029354951,0.08750129224200928,0.09955811558317378
0.09496950425992079,0.2718212267615061,0.2672650169241875,0.4529082382239043,0.34540024908760636,0.6121521135624506,0.08797664629303587,0.09981500320074713
0.0947417609748831,0.269756882931601,0.26441737616317684,0.45530782100856054,0.34978719959481314,0.6082285511262299,0.08854030003610286,0.1000512798137844
0.09452605080840751,0.2677558232310852,0.26178587490994837,0.4579123829609187,0.35420074633223203,0.6045969975690274,0.08938845074385002,0.10030772871564095
0.09430200123736912,0.2658038575515362,0.25935697512854855,0.4604831794606484,0.35877587756474827,0.6009206575386878,0.09054803211362493,0.10057653975361114
0.0940233892881817,0.26378707572515486,0.2569838124146014,0.46280524535755135,0.3635947577850066,0.596984390075629,0.09186398597496472,0.10083685833236831
0.09368616906911595,0.2617236134058501,0.25463951196067725,0.4648537179919744,0.3684816793372786,0.592816662793827,0.0932212712184827,0.1011088600444235
0.09331995686129196,0.259704408701319,0.2523585125623052,0.46691263317154863,0.3730679258606512,0.5883312684486404,0.09454992182051317,0.10139177458345847
0.09292636610447268,0.25766931416434236,0.2500667200521269,0.4691266403416023,0.37728859036245316,0.5835597139530816,0.095809783685047,0.10163136694903828
0.09252033846479281,0.2555674974293885,0.24771332840538468,0.47144674656689667,0.38130257590218136,0.5786460745353897,0.0970093157556119,0.10179585868168034
0.09213623616796154,0.2534440028926997,0.2453099724977081,0.4737591259917184,0.38524870782363685,0.573648070168267,0.09819678335058551,0.10189504052665603
0.09182696487860702,0.25134193841519803,0.24291463151212786,0.47586798926941043,0.38925315818576633,0.5685340765717024,0.09935819241523407,0.10192496890368276
0.09160294320624826,0.24942286503390973,0.24064293091894937,0.47790717761930956,0.3933362704588007,0.5632605838125375,0.100460124320407,0.10190199632821775
0.09141388111556879,0.2477542288670614,0.23861203811787168,0.4801184445005893,0.3973970809428836,0.5579399036709419,0.10152415774227441,0.10183512981386611
0.09129187168978826,0.2462130965753392,0.2368201351391482,0.4822581687807667,0.40134572093445936,0.5527731161844698,0.10253754044491736,0.10173302733933345
0.09127423458379527,0.24481547303643178,0.23515159106542574,0.48404658359690317,0.4052902280570811,0.5477184062229055,0.10345469348701951,0.10162406251990802
0.09131633546292904,0.2436233307453553,0.2335759122284873,0.48551060087460535,0.40939412259370905,0.5425417749139576,0.10427222724894936,0.10150195281230528
0.09142890959656053,0.24268237881301102,0.2321641297595389,0.48665621836882594,0.4136064003801199,0.5373070058515371,0.10508059894557002,0.10138744519660439
0.09167564533445048,0.24204278344627103,0.23089711240260136,0.48738250532249555,0.41774444998554,0.5323626629855869,0.10599977346986757,0.10132043558850673
0.09201035857404292,0.2415784050647897,0.22977647837669962,0.487787214565258,0.4217272706212049,0.5277543865420913,0.10702404833396265,0.10129892459272997
0.09231524177182414,0.24110155694836108,0.22884374998011242,0.48809788049382974,0.42560456448724904,0.5232112690951125,0.10806763594172294,0.10130089791191808
0.09255786711574156,0.24052632394836893,0.22799805865675365,0.4883851494982109,0.429330372430254,0.5186145179896383,0.10906851592775785,0.10128521737409993
0.09274739181808818,0.23991771044820323,0.22720300878570351,0.4886163312120882,0.4328809366250678,0.5141179928083717,0.11004763578496064,0.1012192355188307
0.09287925450936896,0.23938472988549853,0.22653071274114556,0.48888724314973553,0.43630724635652507,0.5097751668424543,0.11113202897953142,0.10111857386599464
0.0929558336635747,0.23887780841057094,0.2260232868310365,0.48941653372028737,0.4395111040711728,0.5053762890319538,0.11232275976097074,0.1010115804710761
0.0929861437218337,0.23828932772529446,0.22570748606354502,0.4901857777878694,0.44257262909120293,0.5007742650744884,0.11351376820193497,0.10091869164603816
0.09300559587724404,0.23758328450878247,0.22552180036681752,0.4909564827586997,0.445802604855831,0.49600242377767517,0.11472395025613784,0.10084607009050821
0.09303470105696407,0.23677884114438952,0.22539389514449187,0.49172784108081874,0.44912373323804305,0.4911462971826509,0.1159513043552809,0.10075947540422014
0.09308638358514251,0.2359679677833987,0.2253949284495063,0.4927063442432288,0.45212100353981194,0.4862543520238572,0.11712035383775762,0.10062616863898442
0.09317298434532764,0.235238644100199,0.2255059241816267,0.4937082110026031,0.4546050171450599,0.4812860660262999,0.11819907399444082,0.10044162247504612
0.09325947254130075,0.23452117081964544,0.22556153371927437,0.4944573347045402,0.4565956801461777,0.4762829830160231,0.11917029090781327,0.10022829961827179
0.09331902574927417,0.23369537846687388,0.22547719285148896,0.49529827310921104,0.4581392537050757,0.4713316767504373,0.12003773862562983,0.10001440036412125
0.09336612887826677,0.23276008548620974,0.2252390068716533,0.49666081143423585,0.4592937921882675,0.46644804928115285,0.12083851888092018,0.0998001562667876
0.0934213353503072,0.23178112692536249,0.2248405193678004,0.4984674797877671,0.4601686903546384,0.4617007339086807,0.12163492928156243,0.0995657312884595
0.09348423972557225,0.2307814033143737,0.22430245307736343,0.5004164236145067,0.46088891690636213,0.45707501833225156,0.12249993633753979,0.09929885683009927
0.09353438888889377,0.22974941028704998,0.2237049385455109,0.5024928926104067,0.4615541013284053,0.4525567121967535,0.12342972398128597,0.09900120067707019
0.0935455449024911,0.2287410341101683,0.22319154107345207,0.5048163734308874,0.46228634053085066,0.4482123695605129,0.12436709180281795,0.09868107381082233
0.09352607744901807,0.22781639559240058,0.22279253066625257,0.5071465662367827,0.4630017821795006,0.44395839334532183,0.1252773756559293,0.0983531336962922
0.0935241377853645,0.22697943443658256,0.22240303238953538,0.5092669791647675,0.46345977117180676,0.43964787251018267,0.12612075796446318,0.09800466456549159
0.09353896609084744,0.2261870328146359,0.22198289319194653,0.5111846813536864,0.4635507061199276,0.4352473100843608,0.12687258797519518,0.09761015114212503
0.09352970365052364,0.22533104407993168,0.22154722214113404,0.513000233805913,0.4633706815009934,0.4311259089304217,0.12761634982022768,0.09715860331111409
0.09349740630193114,0.224328140493236,0.22115728839424198,0.5147831823148444,0.4631522825106673,0.4276432441536509,0.1284319075075115,0.09665962147289257
0.09343642028437965,0.22316561681087152,0.2207981089240593,0.516366073551339,0.4629776190580753,0.4245342265608366,0.12925518009748516,0.09614917844087453
0.0933279933176221,0.22185821783193768,0.220348346853042,0.517555494464103,0.4627580417800773,0.4215783557987091,0.13001817797023515,0.09572855438875769
0.09318766359850189,0.2204268734227746,0.21975219919727343,0.5183874533792406,0.46246228468352696,0.4187116567863737,0.1306759821385932,0.09563494654879699
0.0930370108451708,0.21888503762193995,0.21901660287860378,0.5190638877937622,0.4622410347890564,0.415705699621489,0.13120578504967256,0.09591440795839187
0.09286325719607423,0.2172390005231836,0.21824193135257844,0.5197647379841762,0.46213138361511574,0.4124758346532034,0.1316260095848992,0.09626964652330423
0.0926408304626939,0.21549487947561133,0.2174974901214289,0.5205417539376443,0.461874521095311,0.40913519963217565,0.13193432596349977,0.09652987743316846
0.09237206053714508,0.2136653066387667,0.2167693122899026,0.5214309913356713,0.46137680316571,0.40576537888321174,0.13212861368859305,0.096725721951616
0.09205253485024781,0.21175576176908723,0.2160908238904047,0.5224066570824546,0.46068260680254397,0.4022706047454984,0.13220695449968559,0.09694002044885233
0.09169145349659479,0.2097715637008372,0.21543377682358303,0.5232033011650337,0.4598145123467666,0.3986463093070784,0.13220774116104958,0.09735897080733649
0.09135783047514084,0.20773124411248836,0.21475107198595542,0.523707586923119,0.45882103058482315,0.39500190942566904,0.1321878307645913,0.09802007681875725
0.0910842244101847,0.20562583972906545,0.21405785538616132,0.5240253356769388,0.4576350240357111,0.3913417972020073,0.13214814195056812,0.09874502817943076
0.09084154751806901,0.2034869553466562,0.21339536880800447,0.5241977766434692,0.4561790867286291,0.3876701890415436,0.13208288657916464,0.09948354883190834
0.09060863215727455,0.20136491251834343,0.21279634619697027,0.524264487654894,0.4545265280637947,0.3839443275398284,0.13197986677057658,0.10027445183495567
0.09036522113002374,0.19921422639004627,0.212231864143905,0.5242366848952642,0.4527677193722251,0.38015679552087533,0.1318007073625854,0.10106789559880025
0.09009194767477491,0.19699141636549528,0.21166085088968478,0.524044956931786,0.4509357197236054,0.3764209048454547,0.13154220411508558,0.10180283010468573
0.08977031546850978,0.19471513457360196,0.2110707696248742,0.5237300422229857,0.44914245367293215,0.3727513900430094,0.13123479840460514,0.10246771650918948
0.08941610842841959,0.1924367039846343,0.21049644843164592,0.5233243418585557,0.4473879692843976,0.36908204980309517,0.13088759808713946,0.10314518838960239
0.0890845717344772,0.19018516147335368,0.20995781476813385,0.5226449860110748,0.445538556009383,0.3655100224117784,0.13047592387317702,0.10390759026713065
0.08878841220260131,0.18792808253267126,0.2094471518477925,0.5218850433783766,0.4437070998651233,0.3622551640617494,0.12999628905226293,0.10483741274986069
0.08847957671551068,0.18563445705043652,0.2089637371774257,0.5214833366614106,0.44218877063716394,0.35928009029403424,0.12947885381591395,0.10606688770657609
0.08813217046799401,0.18330140159989775,0.20854696907915798,0.5214648017914117,0.44105834423481505,0.35643510990617566,0.12892576038191764,0.10748151705063423
0.08779500668107391,0.18093288207869226,0.20823446942586957,0.5216122267985343,0.4401128484659137,0.35371063021107385,0.12835915016330157,0.10894485578995756
0.08748802362762802,0.17853941223356917,0.20798189306789303,0.5215639017775543,0.4391646389789564,0.350990383782494,0.12781358734656942,0.11047343229555698
0.08716340445747649,0.1761310730104436,0.20774007812646683,0.5211545451519733,0.4381144598257397,0.3481230359372688,0.12725525422438236,0.11203619201429081
0.0868155430163639,0.17375763735468897,0.20745530277373023,0.5205807619976061,0.43684740893942564,0.34518460694499137,0.12665181501154654,0.11367025644946219
0.08653270256984585,0.17152685515260024,0.2071898824309517,0.5200976319412646,0.43534070425426674,0.34231474167958875,0.12601249838913167,0.11536426342114986
0.08644604969185032,0.16945473874986652,0.2070702653757164,0.5200025499003597,0.43363964464123544,0.33944637174392267,0.1253461666310073,0.11703374114171052
0.08654714244976004,0.16744279025233377,0.20717046246556864,0.5204592652923593,0.4317409464071814,0.33645516825586735,0.12463457915401326,0.11871825951286528
0.08670069138112689,0.16541679189636055,0.20749419656030454,0.5211959777965873,0.42971520485925846,0.3333761007427077,0.12385364578103587,0.12044896839895232
0.08687083892108746,0.16337931020928637,0.20783754834871337,0.5220259737112737,0.42765681396090927,0.3302493898658938,0.12300044801696379,0.12214195819127026
0.08707675735097814,0.16136624104375646,0.20811910238396952,0.5231717204151849,0.4255023202364978,0.32708681062484896,0.12211237968528153,0.12374374591617528
0.08728326362760452,0.15938515296532013,0.20848836333795562,0.5246651920735573,0.4232178642628783,0.3239732064450234,0.12129878877228573,0.125290178227088
0.08746338902009496,0.15741651094521508,0.20894784924669327,0.5263761747662247,0.42089153066781765,0.3209830005320836,0.12060402591230784,0.12679553959334758
0.08763147795340037,0.15546836067591277,0.20939959230300562,0.5282400767855365,0.4185741869044516,0.31815383302891737,0.11995673848280021,0.12822673170613513
0.0877878912086444,0.1535617503384816,0.20979000522053534,0.5300813044876689,0.4162810514635837,0.31545469336242843,0.11931537256594302,0.12953879428483894
0.08791292729841697,0.1516632857001118,0.21006788862971176,0.5316316274614191,0.4139531126291736,0.3128023053982775,0.1186736040782932,0.1307022077775996
0.08799445713631432,0.14974770180856942,0.21019774864568114,0.5327952153525353,0.4115005269471344,0.3101169667409722,0.11804544200891465,0.13173568063397492
0.08803429263223513,0.14781090602353894,0.2101591486327631,0.5336546104174545,0.408877591293031,0.30734921419647315,0.11743090152329232,0.13266391970662544
0.08807432293523167,0.14583563212624634,0.20994607460202783,0.5342623177918016,0.40612767049810083,0.30455210293682483,0.11678986825223553,0.13351065977573384
0.08812787284129098,0.14382545923490317,0.2095863721246503,0.5346019443780008,0.40337259896323713,0.30176972494117404,0.11613748425981084,0.1343053688314302
0.08816087336842685,0.14180390248758878,0.20912019017435649,0.5345978946898199,0.4006821199078924,0.29895732448544876,0.11552167432077214,0.135109714296681
0.08816081374890411,0.139793466131322,0.20858603579721965,0.5342717934984744,0.39832346203204233,0.2960788057037145,0.11494812954057422,0.13603616208479216
0.0881157588044196,0.13780229381696538,0.2080141223335585,0.5336513227164494,0.396658896172972,0.2931063911108337,0.11438882313511355,0.13703839592662492
0.08802770736404457,0.1358247847957622,0.207386584937976,0.532649584276681,0.3955462054551373,0.2900670886126225,0.11379687465260593,0.13802523744220127
0.08791867076789564,0.13384219660757793,0.20672650453180214,0.531377717142417,0.3945412665346413,0.28702691275147907,0.1131475302696226,0.13909000615093972
0.08780303812985703,0.1318767218991695,0.20608942021330817,0.530122812140098,0.39346653231116385,0.2839821506222198,0.11243722514740775,0.14024834551970838
0.08769457963388282,0.13000306001764375,0.20551506344619935,0.5291527818543386,0.39258013967679595,0.2809091972341843,0.11166260821569597,0.14141483955914316
0.0875864022737476,0.12823908787852978,0.20501463473481327,0.528609960124984,0.39205528051596,0.2777654427372491,0.11083390802665381,0.14258800772166932
0.08746522636237074,0.12653494009243574,0.20462552029450645,0.5282556696117738,0.39159594055702457,0.2745636849358341,0.11000776253012456,0.14373968353884703
0.0873250478024659,0.12486291834230102,0.204470291610224,0.5278547370451508,0.3909857655071433,0.27150342820337686,0.10929851951979278,0.1447961436238743
0.08720694343759969,0.12321655482488808,0.20443864541810985,0.5275566673832759,0.39030544468549483,0.268688453172588,0.10872184143471031,0.14572707598687834
0.08725047306368319,0.12160300994081223,0.20450518396735143,0.5275043693409136,0.3895987989006439,0.26599047130667197,0.10818560683261556,0.14653035089120986
0.08749537231565657,0.12002910124170685,0.20485946894154466,0.5275735518570218,0.38880079481867696,0.26339363133387017,0.10770194779701306,0.14721074035002063
0.08790591015873447,0.11854811342628266,0.20533487695409383,0.5275582904175024,0.38786937127831816,0.2608960450826627,0.10738270774948047,0.147786299548662
0.08854135174207496,0.11721761188110669,0.2057518506591917,0.5273753519762701,0.3867644237496965,0.2584423229782271,0.10724779366776123,0.14842149125862525
0.08932445055623335,0.11596548199904022,0.2062261880559611,0.5271391750410642,0.38561490687832606,0.25609978729959576,0.10720240827011185,0.14941397876965978
0.09011431484598353,0.11472266734580036,0.20681511197407224,0.5270863095699339,0.38459101612280105,0.25389261167879584,0.10716247333604283,0.15077402095306525
0.09092994590748894,0.11346990511160655,0.2074194709780905,0.5272890720085751,0.38362142119374004,0.25182373070674724,0.10714116247136626,0.15217009235533716
0.09183629611328037,0.11221552299790563,0.20797115130442267,0.5276559265039119,0.38264452508888025,0.24989581793317792,0.10718448859579234,0.15343881656174385
0.09285529193616156,0.11100760410361606,0.20851202528744095,0.5280924706399546,0.3817150758544976,0.24804443508792376,0.10724279931579028,0.15465804823654625
0.09391419489485658,0.10983192356837758,0.2091757594346731,0.5286688000012164,0.38097231398501635,0.2462814157619648,0.10727527143577849,0.15584213296110744
0.09491664511068901,0.10866147165959482,0.21011015084744128,0.5294652010303885,0.38040884382310985,0.2446380518550183,0.10726962454826772,0.1569245953929654
0.09584407014815659,0.10755063879018281,0.21137608115636233,0.5303509941728912,0.379816839380478,0.24309067228305298,0.10723420657103339,0.15786200493591862
0.09669214900183488,0.10668511329019756,0.21283757355036578,0.5312545800579194,0.3792181700570063,0.24179706271548343,0.10725726284386194,0.158653074091982
0.09755042840301527,0.10632250877868107,0.21431756978894026,0.5323280900691107,0.3787474225438448,0.24103494016663743,0.10735628789390124,0.159350200228565
0.09871850439592549,0.10685584938697272,0.21591412623326478,0.5337703681017402,0.3783526906270977,0.2408354315785529,0.10749445502430165,0.1600838258618591
0.10027539001484466,0.10860004129746899,0.21777441317728433,0.5354035335264807,0.37807785371591135,0.24120771020048856,0.10771004559747753,0.16092520208478098
0.10194861969165377,0.11148072359584633,0.22019272776540416,0.5373246896283739,0.3781185455759884,0.2421065109887876,0.10807971838604981,0.16178191675390788
0.10377832382385688,0.1154256696107719,0.2233831797885856,0.5398403924367069,0.37858136237618817,0.24318047373795068,0.10860310660207641,0.16259230262610438
0.10605680408082524,0.1207258054216167,0.2269213494744039,0.542407557917769,0.3792870503989915,0.24419362726970592,0.10921285145298425,0.16340439228371706
0.10878910239137425,0.1276447342723639,0.23049452843217058,0.5447607190468786,0.3799703077997166,0.2450540326359558,0.10985112389400391,0.16421064171160082
0.11189937199851561,0.1355839251613573,0.23430501018982922,0.5472813172715667,0.3807317390014798,0.24595470375996584,0.11044252251403976,0.16495035273498324
0.11538824275489123,0.14403004563316962,0.2384591508377373,0.549819237877439,0.3816140134240661,0.24716045946523293,0.11097514141109567,0.16567919035765713
0.11904200109417304,0.15299971388045744,0.2427240551336084,0.5520570380522695,0.38232353185748713,0.24843624133051956,0.11149782240528032,0.16645041108457825
0.12262263169673983,0.1619266424677431,0.2468434119001844,0.5540390292440308,0.38290054641783966,0.24965742741576405,0.11202386465445464,0.16720794090429383
0.12616997127965487,0.17061017765333683,0.2508128831677091,0.5559816790630974,0.3837380435059568,0.2511795668452753,0.11258604400133085,0.16792489961000903
0.12970878563478355,0.17933332309454425,0.2548223568537313,0.5581455738480863,0.3847971511422661,0.2533023516094789,0.11330259448681909,0.16863578786601693
0.1332092849211329,0.18809930774322037,0.2588929675257678,0.560465522370679,0.38566605919755553,0.25585722542011763,0.1142129176040217,0.1693468691086349
0.1367901018366186,0.19689780696603257,0.2628643515349617,0.5625514039606371,0.38626527676717415,0.2585555065423646,0.11526091216886984,0.16999058890635538
0.1404910907011193,0.20544478928956697,0.2667169289269659,0.5642041119422234,0.3867998377719798,0.26127469678296983,0.11641952585207851,0.17050907948222163
0.14415636522374523,0.21352229666067693,0.2704120274580377,0.5654341889096381,0.38728540777231535,0.26383742749607253,0.11755579985711609,0.170873852497515
0.14769702142591354,0.22126996554552703,0.2738994355654709,0.5662588132921212,0.3876835312253958,0.2661677922347826,0.1185693186720372,0.17109792174134622
0.15126883342934747,0.22880831085256098,0.27727841519951146,0.5667081803544255,0.3880711693694681,0.26842072994276944,0.11947781020663385,0.17126741680750426
0.1551010073559458,0.23621269671906556,0.28076436660636633,0.5671391472262103,0.388648982241964,0.2708514965040219,0.12030501933219824,0.17145140519388527
0.15931224819723047,0.24346173820526215,0.2847704908335337,0.5685015029296644,0.38975581732243825,0.27374419936271943,0.12107373752819431,0.17165576539917415
0.16384858764366955,0.2504415262992922,0.28935054687506756,0.5710810692160161,0.391327500947169,0.27706259983735476,0.12177239253871769,0.17183929911740983
0.16852436970518972,0.25711690749872923,0.2939870973599221,0.5740669473633853,0.393061505073098,0.28039720963028597,0.12240335454538515,0.17192918870546223
0.17328221887014006,0.2634612357826993,0.29844588851270354,0.5768903496373802,0.3948889281903649,0.28353684041264793,0.12295558417542074,0.1719160449019937
0.17806048777096734,0.26949614435791297,0.3028373156883978,0.5794018338820294,0.3967772025760594,0.2865537936836463,0.12339185398110962,0.17187121739034875
0.18268652707364955,0.27539640200177096,0.30721355426819547,0.5815122409181486,0.39889569565710303,0.2895039755141691,0.12374352577600821,0.17184961393926076
0.1871156842920464,0.2814095441297693,0.31152423763449094,0.5831701030818658,0.4013660767883935,0.2923473236083396,0.12405405208682928,0.17184356021905017
0.19134555317485966,0.2875248598921853,0.3156543916656335,0.5843801138411182,0.40388317318539463,0.295012190000802,0.12427811947268443,0.17180558466104817
0.19534728062121903,0.29362502998500334,0.3196413038733377,0.5854480630114589,0.4063622932286984,0.29750375809164925,0.12438583902709632,0.17169699540907313
0.1992004629022582,0.29977836875392444,0.32359432517758213,0.5868203660040289,0.4090901898270217,0.29989401287936535,0.12442227852757791,0.17150090804821277
0.20330899249178291,0.3060434845692345,0.3275645995957387,0.5885493313911421,0.4120667903640877,0.3023120825578876,0.12445735990464724,0.17123468614271703
0.2080255338893439,0.31242952930430046,0.33152748646184116,0.5903436666106978,0.4150310330598204,0.30493494466424287,0.12452453807924782,0.17101529572277227
0.2130316155891099,0.31871113198149226,0.3353791915851465,0.5919179885398567,0.41786693193291463,0.30777791128300386,0.12466915506533612,0.17098131850868814
0.21780168966655966,0.325013799910821,0.33914757175647214,0.5932535944233837,0.4205305247756097,0.31076181323695085,0.12498799535056995,0.17114478778947867
0.22230129121823222,0.3317517479612524,0.34284598174955744,0.5944197421280197,0.4228996947168067,0.3138174716403108,0.12543975024022577,0.17144347781407102
0.22675178044013286,0.33878589417963656,0.3464270899532129,0.5953691822088415,0.4249983209192293,0.3167850412330475,0.12591123234741688,0.17179767852432523
0.23118442468089045,0.3457555922018124,0.34987247867802895,0.5962107046708053,0.42694310939572777,0.3197323445733606,0.1264211870763391,0.17214446208443768
0.23552886044113455,0.352396161699045,0.353117859949148,0.5969548727347666,0.42861852062448746,0.32274433432862903,0.1269941940361228,0.1724503862483587
0.2398649581113326,0.3587489241115522,0.35616879214662855,0.597404619993806,0.42987418034820557,0.32565482868166973,0.1275734723738083,0.17281053462299406
0.24428249716661057,0.3649406004649396,0.3589839781529271,0.5975455628748019,0.43069368739399827,0.3286392631606844,0.12811138862307966,0.1733358643436883
0.24861321071221373,0.3708585520781723,0.36161774642733363,0.597571505571254,0.4311286339426874,0.3319656674385094,0.12856910517954426,0.1738916569353526
0.2526494262594738,0.3767563409207717,0.3643829918729325,0.5976946851008571,0.43130897288695785,0.33540201880121484,0.1289964670098795,0.17438244865329758
0.2564735903956825,0.3832308851268351,0.367298075123776,0.5979174429405028,0.43129239611049974,0.3386326678840601,0.1295815873443605,0.17488413586402318
0.26030517664171426,0.39033110171912255,0.37011297610362737,0.5982084929078766,0.43109416280453805,0.34181721171163215,0.1303638473610623,0.1754158186049129
0.26411341949133327,0.3975214999090545,0.3728159588500784,0.5987517930040676,0.4309563668706628,0.3451752158617206,0.13114671815598988,0.1759021345791479
0.26773519384775724,0.40446360711217394,0.3753691616358335,0.5996562040189076,0.43107040762626575,0.34850869373162735,0.13180907020055674,0.17631115598184688
0.27137568497843556,0.4115292384583208,0.37757604976858467,0.6006711518532996,0.4313918013049049,0.35176200524996415,0.13238224515450614,0.17673945022487572
0.27530468897920285,0.4190538742416609,0.3793693107504988,0.6013763239590957,0.43187111110092047,0.35500235282838943,0.1328896228249231,0.1773261713277284
0.27924512272711777,0.42654228647099823,0.3808788492382484,0.6017243276645874,0.432347234872073,0.3580733945378968,0.1333736884039467,0.17807055415389025
0.2828450156744877,0.43356760459346727,0.3822358845798335,0.6018841251652769,0.4326259587339653,0.36087254762795,0.13390184715637937,0.1790185162835463
0.28608226123482416,0.44015654238826674,0.383358816466385,0.6018503690283018,0.4326888480542262,0.3633955530663473,0.13445830114314708,0.1804678496023406
0.28900960910111995,0.44631501618689357,0.38412970092553267,0.6015913872476801,0.43262545294262944,0.3657856944968944,0.1350078537658486,0.1823686233062643
0.29165107202851653,0.452089216529222,0.3845831502668398,0.6010169280200519,0.4324546943685226,0.36815341343816366,0.13554358842025474,0.18433165690220174
0.2940700109946376,0.4576774746209196,0.38484618249753005,0.6000743958976903,0.4323619235716837,0.37064448939872185,0.1360923321834184,0.18639246534532675
0.2964810253199857,0.4633900296126098,0.3849535623209035,0.5988208116548728,0.43277174211959385,0.37354533874350976,0.1366730478126444,0.18867184324993952
0.29904928055343694,0.4694499733057075,0.38492532205824576,0.5972709027287705,0.43362179794857625,0.37671500646822,0.13733727291744957,0.19110460416372382
0.30161168715132736,0.4758497308837298,0.3848074982489282,0.59551258813445,0.4344374944084141,0.3800317753361054,0.13815428271168406,0.19374859349102164
0.3039654468094301,0.4824680674147815,0.3845773537993244,0.5937304567643668,0.43507913209103777,0.3834927366977281,0.13902973155974824,0.1964984760605379
0.3061641558308989,0.48910857391761425,0.38440714079491745,0.5918938343714394,0.43562051503218113,0.3869144483322965,0.13988668922961495,0.19931356553439125
0.3083260906535453,0.49544295018246937,0.38441476633984123,0.5897594817735599,0.4359651879514606,0.3903488000775405,0.14073850385024228,0.20234877337045695
0.31040396045970375,0.5013513509391188,0.3846259246333146,0.5873758275828046,0.4360478208879137,0.3939256460761344,0.14156451868453993,0.20549131442229973
0.31223226350158073,0.5068599552413834,0.3850783687095306,0.5849365275577869,0.4359398949462775,0.39770220037656295,0.14233162766102447,0.20854628374403741
0.3137331625193991,0.511913959025882,0.3855137960662123,0.5825600160708819,0.43570996889771646,0.4015324192851421,0.14298816238377698,0.2114276200992569
0.3149729238992604,0.516688701141061,0.3858322364979242,0.5803394622913045,0.43543042593872133,0.405075975196082,0.14351823629851712,0.21411334337532936
0.31612216171180146,0.5213321126005378,0.3862591028791841,0.5782100590861647,0.4353377005137647,0.40826835885660695,0.1439468910369173,0.2167029646610657
0.3173241052997077,0.5256715828265067,0.38684944489190226,0.5761632152353993,0.43554411091474365,0.41126215391593607,0.1442848060188573,0.21927839153126094
0.3184817005058811,0.529548981652282,0.38740169587840667,0.5741037157521104,0.4356954748609773,0.4140697859405948,0.1445422841793372,0.22174415105467907
0.31950215360560336,0.532987331575077,0.3878100027052444,0.571907065790153,0.435526600170982,0.41668994834791245,0.14475600219887946,0.2239622234004801
0.32055758796187983,0.5360759380341704,0.38814708600364145,0.5697150652133766,0.4350849960469899,0.4191483161410314,0.1449410273095025,0.22596128859788503
0.32174575377555265,0.5387935879714629,0.3884023435455825,0.567596487754742,0.4343963125564053,0.4214094311969246,0.14507836990716447,0.2279628844551172
0.3229861904315947,0.5411404061676585,0.3884787954305661,0.5656304195165777,0.43341177815277576,0.42357997174420486,0.14518334141134806,0.23005188598979742
0.32420188337333034,0.5433642502986968,0.38831727854419673,0.5638923625720436,0.43213182802594274,0.4257553816576371,0.14527061911576325,0.2320419573129244
0.32531918870204973,0.5455351769271646,0.3879015462520514,0.5621133341600391,0.4305972793838989,0.4282342170495188,0.14532751575855177,0.23384855887700234
0.3262811297073808,0.547472869000113,0.38736339435865014,0.5602032289303029,0.4287872478801603,0.43143548602611015,0.1453285528422977,0.23555815089442755
0.3271336449838236,0.5492591368113655,0.38689586903716033,0.5583033061670537,0.42667533673214086,0.4350639514472603,0.14524272704610608,0.23720672831215106
0.327934154355304,0.5509456378540352,0.3865832698861777,0.5564082716777942,0.4242833893889275,0.43866964480895404,0.14507389597071685,0.23876860718746418
0.3286239713792249,0.5523545586540276,0.3864726538116141,0.554559858295867,0.4217596035494493,0.44227013249672475,0.14483920162431504,0.24021930340929212
0.32918718250129125,0.5534029982469963,0.38650186253116464,0.5527778824269695,0.41926592192958156,0.44596913995520293,0.14452836085663914,0.2414820165626102
0.32961537389583645,0.554038750077904,0.3864708989039875,0.5508605987007015,0.4167298983055222,0.4498925338045704,0.1441316108998431,0.24248346518173175
0.32981371032017265,0.5541922168579259,0.38621525883883134,0.5486218454439893,0.41406221771607515,0.4540401471590938,0.14364638213406422,0.2432273500738805
0.3297919889450776,0.5538908947140073,0.38587198588059035,0.5461579853639066,0.411304606735043,0.4580037607128158,0.14307698798046142,0.24373751774658392
0.3296400250938101,0.5532350694577894,0.3856792280358249,0.5435680968789764,0.40851712333722917,0.4616404528134222,0.14242763567108038,0.24404369001903245
0.3293435674745144,0.5523009532359427,0.38555039911673555,0.5407197520553735,0.40575055848442343,0.4652751591159565,0.14168236893919298,0.24416780809982555
0.32882895001629375,0.5510948554261609,0.385389242025321,0.5376804199837097,0.4031069633875883,0.4689579444720344,0.14084607538044966,0.2441243495208653
0.32807272020327766,0.5495829580797794,0.38517725934955027,0.5348491198892169,0.40078412507997024,0.47257618878214835,0.13997031975317092,0.2439273244583173
0.3271128515283287,0.547766637852517,0.3848032032177436,0.5325404707055472,0.3987235455239415,0.47624955075345454,0.13909109219067853,0.2435635386996615
0.3260192936669722,0.5457745386053168,0.38426110596547464,0.5306336994869612,0.3968556436891397,0.47997877473257444,0.13821607836277072,0.2430138464470126
0.32483902774495094,0.5436830818343005,0.3835855372189225,0.5286251083079802,0.3953276267955569,0.4834703368059823,0.13734593992605587,0.2423604027015036
0.32353684552237116,0.5414518027412191,0.3827227757897362,0.5262736807530072,0.3939724229507233,0.4866843923269127,0.13644118935223032,0.24170863629198816
0.3220524426658312,0.5392293366847742,0.38160824382920544,0.5237236185125284,0.39250970657779394,0.4901313443052109,0.13547746041989386,0.24101898784162457
0.32040185686453915,0.5372247109104623,0.38030744600164107,0.5210261311669518,0.3908252147606918,0.49413872776626916,0.13449167630119183,0.24020685197232736
0.3187944819779246,0.5354370801729412,0.378909964023861,0.5180966261632288,0.3889368972683781,0.498323963975555,0.1335258628699767,0.2393251372813757
0.3174305706607442,0.533852054554971,0.37738791884253364,0.5150215598815279,0.3869289801609808,0.5024078453621864,0.13261351447556238,0.2384846939141469
0.3161604546136781,0.5323888143284456,0.37571476318331304,0.5119238878805894,0.3847885414514819,0.5064978089735306,0.13178661830890231,0.23763105213193486
0.31478070543078485,0.5307894135555709,0.3739454807560584,0.5087006078602166,0.3825835800858013,0.5105361542663923,0.13102220138339943,0.2366519484055426
0.3133575930121869,0.5289743959886098,0.37214613059329793,0.5054004058792063,0.3804059461347556,0.5144610520310952,0.13026479894354837,0.23556715202026896
0.31197460713866143,0.5269682557326618,0.37031975648604903,0.5023975382955794,0.3783234139574617,0.5185477671616943,0.12950146548103222,0.23442241901705388
0.31050430611395335,0.5246809457653695,0.36851609772227045,0.4998157022095342,0.3763739770572879,0.5230861901442007,0.12873988164018996,0.2331679715544725
0.30884492854902823,0.5220466614907601,0.36675596635653895,0.49735828366403734,0.3743665269437056,0.5279386486377954,0.12796064878706778,0.23175630087538993
0.3070062930383462,0.5190763384158193,0.3649789965553909,0.49482835574081024,0.37225203508952565,0.5327391414591173,0.1271318564117298,0.23019560220073307
0.30499796455845946,0.5158208769794946,0.3631341479731291,0.4921713383275144,0.3702444591207185,0.5372379119723407,0.1262631442891085,0.22850723040256807
0.3028426281632297,0.5123426128659773,0.361132548097593,0.4892950301347533,0.36838789273150446,0.5413367533774803,0.12539051564150708,0.22672510751727698
0.30058886884082164,0.5087816194313096,0.35894282545579104,0.4862117376256181,0.3664903592810784,0.545095889632389,0.12452166908812913,0.22486171410251377
0.29832337100036344,0.5052452190117629,0.3567023023377606,0.48304709352017333,0.36440169404944894,0.5485331398219041,0.12365059313483127,0.2229223808641476
0.29604883194831033,0.5016354677421125,0.35452232469386497,0.4798210602299616,0.3621188474858554,0.5515455122647984,0.12276485372310275,0.2209189661243682
0.2937210388257942,0.4978854926695696,0.35232213461997974,0.47643913072038996,0.35965246193977785,0.5541351904241901,0.12185257128953524,0.21884281689044663
0.29135792510295566,0.4940183796750332,0.3500579329381226,0.4729247166134487,0.35704632424921634,0.5563381007330028,0.12091578004675461,0.2167057842798531
0.28894324925631715,0.49004963854693867,0.3477748030245651,0.4693203979159699,0.3543825690838222,0.5582023537014419,0.11993639160724179,0.21456606486209306
0.2864347815226605,0.4860744346405552,0.34544234187620165,0.46566030510723583,0.3516261562480054,0.5598077258565969,0.11891051667146237,0.21243252711264837
0.2838189616556807,0.4820968866102051,0.3429980855481,0.4620306269608849,0.34870354199445014,0.5610836858727094,0.11785453769672148,0.21025347456035104
0.2811163520998829,0.47798053135469565,0.34049605370030145,0.4584469178984626,0.34573174568963605,0.5618761680786479,0.11675741046590941,0.20800624503082518
0.27839350720045297,0.4736752014167618,0.33802809000047296,0.45488389629845305,0.34296315398777366,0.5621385580100757,0.11561529638314849,0.20574945843473574
0.2756739929064869,0.4692534390499966,0.335561666862918,0.4513975906629771,0.34055207216202155,0.5619070101159054,0.11445799686648493,0.20353919650368493
0.2729134883206374,0.46484492008373995,0.3331191563770707,0.4481418099492469,0.33848529189321946,0.5613101879291058,0.11330066102617972,0.2013555134512152
0.2700830100506108,0.4605001268312908,0.33085565442036796,0.44522334086070187,0.3366361852255487,0.5606453511953269,0.11214440777463612,0.19918599055535088
0.2671615877250572,0.4561335672242026,0.328899286289877,0.4425835409909227,0.3348767308844831,0.5601300479668079,0.11100367826355746,0.19699867723295358
0.2641359360226957,0.4516835432414722,0.3271516764234142,0.44011255964636375,0.3330910703299594,0.5597783354219955,0.10988558514396128,0.19475634257713814
0.2610201913968572,0.44711117647321985,0.32544497726067145,0.437892363573296,0.33114834724610254,0.5595032126175014,0.10878353821492012,0.19247022839795389
0.2578613927322775,0.4424195118613449,0.32386597608590506,0.4360278592439499,0.32908400638475915,0.5591210960963963,0.10767116030740206,0.19014444428990765
0.25468451848019336,0.43763832101680267,0.32245744971794266,0.43463910874571315,0.32704573083384103,0.5586704340920855,0.10653660238935572,0.18778295955842325
0.25145999143785197,0.4327359946303533,0.32108631666201914,0.43371346427034346,0.32504104166992615,0.5583017314158598,0.10538192366577433,0.18540966334661269
0.24819299549544396,0.42770915778234103,0.3197188459130277,0.43284390924297916,0.3230236130725826,0.5577844599346279,0.10420911328152671,0.18304073211234273
0.24490190217965419,0.4226015041006311,0.3183963142512012,0.43175472160238076,0.3209625165786172,0.5568715090375458,0.10304014930795509,0.18065820535926252
0.2415842500602027,0.41752845196775196,0.31709130179238787,0.43059021639850814,0.3188482677831409,0.5556143846638723,0.10187599315432494,0.17823154430547677
0.23827782603721975,0.41256694093135243,0.3159112823890167,0.42965565884774987,0.31669858957036695,0.5541295463130892,0.10073093171723606,0.1757850675142857
0.2350321359993589,0.4076701121687895,0.31531329437187827,0.42903556188422215,0.3144435514540774,0.5525419843346011,0.0996319845108473,0.17336211374690078
0.23182093036098042,0.402786394768822,0.3153729114282218,0.4285095942924839,0.31202973549643925,0.5509312409049951,0.09857152258949775,0.17093725616987912
0.22859900909200742,0.3978597602900813,0.3157740028745517,0.42798056998622747,0.3094663719839854,0.5491862172544566,0.09755558328665959,0.16847280283619429
0.22535657650547394,0.39285671437740755,0.31664843325230096,0.4277433145206168,0.3068827816421618,0.5471272267006427,0.0965564688210167,0.16597285370430867
0.22206422453888933,0.3877720358041173,0.3180215904640225,0.428039444007049,0.30444280064571816,0.5447297851900061,0.09552761094925631,0.1634413648324919
0.21871392915245058,0.38259412309582336,0.3195161204097322,0.42874520429020563,0.30208237031915347,0.5420844606292178,0.09448466741537619,0.16087546485872725
0.21535824452960317,0.3773186549013161,0.32083780977510296,0.42985548486344,0.2996933372613813,0.5392380087670986,0.09345600104248371,0.1583058701922826
0.2120675041075945,0.3720485671093377,0.3219928935695527,0.43165918874778036,0.2972257632677703,0.5361551162453617,0.09243529855525777,0.1557686519413431
0.20891560814573357,0.366882317198915,0.32313458769014913,0.434157870725212,0.29463195609072634,0.5327554308837984,0.09139645547905371,0.15324479480582556
0.20589956592869374,0.3618003225797042,0.3243693470363799,0.43686427240302755,0.2919533352863629,0.529029257697259,0.09032789116559259,0.15069603905893925
0.202916096236345,0.3568172000763584,0.32582565433722577,0.43929873739844866,0.28941012311322184,0.5251481589740806,0.08923861477538614,0.14811255545555765
0.1999399201195691,0.3518732903697574,0.32735207092427904,0.4414172451261299,0.2872930725014832,0.521336564694325,0.08813726396014117,0.1455117192375194
0.1969936517969705,0.3468713731331288,0.3286565804196648,0.44347886094662564,0.28561245173034555,0.517688737659526,0.08705217053049935,0.14291685328952025
0.1940253483866938,0.34187228582557194,0.32992808743096996,0.4457381330720286,0.2841169093005287,0.5142077688457118,0.08604384917603006,0.1403435752513742
0.19101877529775593,0.33696096321834673,0.33141417886928737,0.44815754708634664,0.2826460692932237,0.5108095364116062,0.08510993713453267,0.13779343132764807
0.1879985561066138,0.3320848453157016,0.33292357419596363,0.45040688222303327,0.28126045182145276,0.5075739571646619,0.08419461485016184,0.13524782033359672
0.18497488560577152,0.32718025028987696,0.33436688608092135,0.4524244983538064,0.2800646664187227,0.5046709213484489,0.08329127221153791,0.13270900290975685
0.18196420484569645,0.32229326645038464,0.3357790226127695,0.4543722942004354,0.2789713866860046,0.5019617474151702,0.08239357479283597,0.13019919276121478
0.17896885596019269,0.3174612763216275,0.33707974378027716,0.45623805151487123,0.27784349451267176,0.4993470230166768,0.08147540012655462,0.12773292430828434
0.17597769259230356,0.31263975337827754,0.3382057759808137,0.4581706251116504,0.2768106160648227,0.4969254573851828,0.0805452104717909,0.12530400045964482
0.17296667681562602,0.3077794099945507,0.3390967639009443,0.46053965905640487,0.2760167105646943,0.49484477136326915,0.07961779790282285,0.1228797135563683
0.16992620637818673,0.30288662551549034,0.3397219457840948,0.4631768082447553,0.27538530005022255,0.4932793670620067,0.07869393709537462,0.12044883067989366
0.16688055451390033,0.2979809052913556,0.3400989549643192,0.4655129411806366,0.2749099326733108,0.4926496365037916,0.07777436563161237,0.11804072914586305
0.16383957272522356,0.2930742335760865,0.34027164190729237,0.4673382470496145,0.27456422844733247,0.49316290701580184,0.07685978490000542,0.1156701157375645
0.16079262203344097,0.2881713887964661,0.34030220662118604,0.46878013756791864,0.2741623656819169,0.49424750802054945,0.07597760480760493,0.113317592172436
0.15774290346162248,0.2832568801693206,0.3401967957072811,0.4699675437242243,0.27368711493114545,0.4958775644822546,0.07514732689277973,0.11097127163551321
0.15472022541693525,0.27832927325295137,0.3398678165759289,0.4709571797874207,0.27336276067810844,0.49868970865696544,0.07434075344148361,0.10864652169705974
0.15174638888271336,0.2733938945409296,0.3393253022882699,0.4720308088081145,0.27322986033813745,0.50282374908306,0.07354426113179627,0.10637139319248783
0.1488020845734752,0.2684424746518818,0.33865928750980173,0.4733107773696089,0.27308632966464996,0.5080778448201134,0.07276486679101749,0.10413924029397909
0.14586881380281658,0.2634738050022244,0.33784903829599866,0.47443921337055706,0.2728792815494064,0.5139369190520068,0.072002579859787,0.10193029257846323
0.1429623008877807,0.2585402338156753,0.33688823288077,0.4753413809762299,0.2726584777976619,0.5198608925602134,0.07124402094408695,0.0997523601862264
0.14012430480797983,0.2537118584317165,0.33586457292917216,0.4762869942055971,0.2723712417175811,0.5256406472179911,0.070463016561723,0.09760619796011132
0.13741476156510163,0.2490355705948995,0.33488875341295854,0.4775005745832684,0.27212771278834114,0.5312100107205568,0.06964792421176572,0.09548581131405276
0.13484407687052324,0.2446162510634367,0.3339863812707546,0.4789559336994493,0.27208000371483193,0.5367198400200831,0.06881438405990953,0.09339212723412361
0.1323418387328547,0.24046705737299703,0.33301473089540173,0.4803202338837424,0.2722798245334277,0.5422008326362401,0.06798406037206968,0.09131932068922141
0.1298606867886326,0.2364197937299466,0.33183734589361,0.4813687926368418,0.27281651490298636,0.5473948838991001,0.06715092904294323,0.08926179962675156
0.12745558773646756,0.23244719418740956,0.3304977331966809,0.482060830970787,0.27356125635055567,0.552276018929116,0.06631591641743947,0.08724094406358754
0.12516567429182984,0.22872368421723951,0.32913795501729737,0.4824980912372701,0.27433713988721486,0.557093817840107,0.06549996826362994,0.0852771695214732
0.12293466404386383,0.22528214983857336,0.32785380381028995,0.48285837186114233,0.27517549289694043,0.5620269024714075,0.06469635790140257,0.08336320541397194
0.12073540735766826,0.22196656901956255,0.3266432328715391,0.48325833148716335,0.2761396508512109,0.5670855582134349,0.0638986390560816,0.08149204901880672
0.11857533353634535,0.218661008042845,0.3254172959982239,0.4836624299055554,0.27707612490548417,0.5720521798195317,0.06311401180479508,0.0796703325064399
0.11644145334180767,0.21532142111211403,0.3241845304553439,0.48403666735765416,0.2779718420860354,0.5768256824864362,0.06234266474254652,0.07790435210653644
0.1143280026663695,0.21193913912004764,0.3229798529189738,0.4844220959137577,0.2789881716784432,0.5819246684101416,0.0615914514016637,0.07617333281152823
0.1122428200741659,0.20853265472279311,0.321662800789872,0.4846172785186042,0.2801055192010556,0.5877245418339241,0.06086022209318822,0.07445068271243553
0.11019337620312242,0.20511968031952807,0.3201258677640268,0.48447651718010987,0.28130504414998764,0.5941223858146657,0.06013544243149551,0.07274438717767717
0.10819346849539614,0.20171716485936847,0.3184202085924596,0.484181695536664,0.28246167015700585,0.6012933026187417,0.05941084591302333,0.0710754406799202
0.10625624698302936,0.19833462470082744,0.31659491792311184,0.48388019815124433,0.2834023099960275,0.6091633445100939,0.05870049603903698,0.06944383142868905
0.10436748590991651,0.19500120123401973,0.31465695670273114,0.48351911857038327,0.28414881341237985,0.6172131433610313,0.05801783140851512,0.0678428261450048
0.10250684497940417,0.1917380360982073,0.31263983597371947,0.48307465079995765,0.2848225573802919,0.6250861323663965,0.0574024237165754,0.06627264056140478
0.10066821256943642,0.1885051107774975,0.3106158026601038,0.48253747578109213,0.28548622688838227,0.6324614683645227,0.056892060085668446,0.0648069967766232
0.09884572139876009,0.1852641166189577,0.3086740286363036,0.48180516557185327,0.2861262470967807,0.6391263346682196,0.05644255268575058,0.06358317181103575
0.0970538014356922,0.1820519630084115,0.30684624364566254,0.4808802210748359,0.28667616827698067,0.6450784273586054,0.056038318991186185,0.06261189649516405
0.09532628392306287,0.17891729945005322,0.30514931661610484,0.47983208003016575,0.2871260029793953,0.6507508177935067,0.055711211605754776,0.061776158387761224
0.09366872392923348,0.1758263550580454,0.3035457694457948,0.4785801906162898,0.2875799556198494,0.6572867966782054,0.05545150875078222,0.060977271033842186
0.09209305353434169,0.1727467842970243,0.30187931536650947,0.4770744420203003,0.2880842106645994,0.6654180962438806,0.055229788183145154,0.060180974539186416
0.09059723532671816,0.16972786771889817,0.3000807514407287,0.47535406354971244,0.28874975655048263,0.6744524316866988,0.05501118361861525,0.05940129699632424
0.08917924334092223,0.1669704627115586,0.29818429889197234,0.47340329932885405,0.28984306574838326,0.6833790609161517,0.054769026879333174,0.058651640843921486
0.08787049428699563,0.1646664456665377,0.29635650540331865,0.4714747387630212,0.2914113532586133,0.6922408480363357,0.05450457524310508,0.057971540932776316
0.08666750438246053,0.16269804907915755,0.29477667268434643,0.46997712206801356,0.29312491029778853,0.7017006507713673,0.054232424783656315,0.057432176693033
0.08553340936278209,0.16085869580935344,0.29330851737057373,0.4688864819067954,0.29472170339877046,0.712064332386657,0.05397991662402317,0.05701458108329888
0.08441950852692488,0.15907769434574803,0.29184831447066195,0.4680524664360528,0.2963456701282142,0.7234564429635998,0.05375981287087772,0.056620262290485994
0.08331262780180028,0.1573943441015227,0.2904171859971098,0.46740455529164104,0.2983952190325625,0.735881465991955,0.05355085998154468,0.05620178780032959
0.08224696051264671,0.15583277049753516,0.288948390604021,0.4668216253601598,0.3010504557908003,0.7490551968862027,0.0533527751111617,0.05578066920348218
0.0812418023712672,0.15430227176451053,0.2874048674606036,0.46634153130352435,0.30401505780814436,0.7625579677263661,0.05316527721388538,0.0553841717828153
0.08026206451789016,0.15277623128509937,0.2857980400874067,0.4660739289733342,0.3069651651830589,0.7757941374800814,0.052988087236044375,0.054998236477203984
0.07927415838391887,0.15128267243128563,0.2842191281467085,0.46609676001724537,0.3099453613379861,0.7882543804580133,0.052840986161410086,0.054616090937728186
0.07829276460142717,0.14979488179023892,0.28271524455419633,0.4662636621437871,0.3130517508481023,0.7998132950243624,0.05271612249942839,0.05425799727465545
0.07734529145722235,0.14830067315528667,0.2812310931241965,0.46660832914490236,0.31617556148109616,0.8107262126445677,0.05259927853351059,0.05392325599844825
0.07644455151823215,0.1468285118085286,0.27972044754396846,0.4674503150117979,0.31925284675185744,0.8212446786402884,0.05248353260839934,0.05359780356328333
0.07557601162982375,0.1453855468878725,0.2781792316296531,0.4685064429996819,0.32216899633852836,0.8312887621172349,0.052362262798438926,0.05326817860555078
0.0747190531535941,0.14399196057697988,0.2766169477553522,0.4693786023146813,0.3247543624413906,0.840715604128522,0.05222914027547542,0.052934880679606416
0.07385394228024601,0.14271381202312727,0.2749691602011023,0.4700405157740608,0.32718128658798273,0.8495496126586038,0.05211155245272106,0.05259839117702682
0.0729751825381918,0.14157406251325952,0.2731676299806333,0.4703870196340588,0.3296883194378654,0.8578815668950163,0.05205573945177281,0.05225917365114412
0.07209758735183767,0.14053436831845756,0.2712475212640454,0.4704381718630337,0.3321358402981581,0.8656650667140454,0.05203901278744745,0.05191767414469932
0.07123532528432273,0.13951115371125306,0.2692827003207291,0.47046082423029867,0.3343502376081353,0.8727158528314669,0.052019574334914546,0.05156094961187263
0.07039524842783004,0.13847126062705015,0.26725026327235124,0.4705297388612421,0.33630607443017224,0.8790656451609382,0.05199087475096047,0.05119000607111169
0.06955714587282288,0.1374765913888683,0.26508156515894554,0.47042888830265284,0.33812635983727557,0.8849594124827006,0.05196003015207017,0.05081919145883574
0.06872842691210482,0.1366197443823396,0.2628849104372633,0.47020586301517314,0.34000911969636455,0.89033773641511,0.05193384948534372,0.05054246152816405
0.06794291361517253,0.13595573117840007,0.26077729594915944,0.47004670834194107,0.3419364495046375,0.8948902120511357,0.05191215534919958,0.05054988754003095
0.06717942892325875,0.13545006917474708,0.2586766556510157,0.4697883394550874,0.34396472528930994,0.8985547292387084,0.0518947737198177,0.05084917181497026
0.0664176947874999,0.13503619160749347,0.25652454091705207,0.46930828414949655,0.34612103190924254,0.9014064532547437,0.051861476109928646,0.05122676370167032
0.06569848626573728,0.13464364989341512,0.25433195232061023,0.4687236148309806,0.34813028567278526,0.9034378362197775,0.05179292845381315,0.05155854852373999
