0.33752665649963787,0.3564712245041262,0.3288969141129422,0.9792542832341359,0.6825945734995768,0.6861381170210684,0.1790027745013477,0.22572993893029628
0.3309550922144994,0.3512701233390859,0.32942414616458554,0.9817722037460165,0.6791225009449464,0.6850563701297787,0.1770195083466715,0.22287241969649632
0.3243963896064493,0.3460829471458222,0.3299112965915617,0.983941577407089,0.6761552415302643,0.6842160558957406,0.17511198950626983,0.22003088390811262
0.31789643748805435,0.34102107395022824,0.33045324023929146,0.985447844637098,0.6734397142369903,0.6836074938130776,0.17325202405150397,0.217180636488294
0.3114322142514998,0.3360237718730024,0.33095346942580656,0.9866058634269449,0.6705129564991121,0.6829871919181211,0.1713791675777344,0.21428469201967193
0.30497497827530673,0.33103288587974156,0.33130633870254633,0.988051443115719,0.667427088937888,0.6821690525257968,0.1694556726798136,0.21135451813173867
0.2985239740140223,0.3260997572120282,0.3315513408873715,0.9899980141899442,0.6644460713470177,0.6809217684385556,0.16747222502079032,0.2084947205173185
0.29209184464738785,0.32124001047810563,0.3316795550452548,0.9917265868846669,0.6617153163057428,0.6793922260090408,0.16544671672769806,0.2058788366422015
0.28569735166067434,0.31641503281945244,0.3317026185260308,0.9926566018165895,0.659146353243772,0.6778682919426472,0.1634431046873829,0.2035322221517316
0.2793316610818767,0.31158785578309434,0.33169193806666863,0.9929355247205616,0.6564538213723561,0.6762107887445983,0.16151585936194685,0.20127829224136926
0.2730130388406275,0.306736491460757,0.3316623622743386,0.9931329426658394,0.6534852271059021,0.6741596828860744,0.15963009299639597,0.19899484803092993
0.2667655976090803,0.30182655890081245,0.3315144515121096,0.9936333063501027,0.6502821769060877,0.6716671995620044,0.15775239388401388,0.19670543448551264
0.2605655318115701,0.2968385996735748,0.33114651571479903,0.9941220998595863,0.6469916707892961,0.6687883555186555,0.15588422425032578,0.1944325791556086
0.2543967105914148,0.2918276217665359,0.3305818434883334,0.9944790069179937,0.6437410332164631,0.6656162654082644,0.1540202876236629,0.19213095509983796
0.24827041773159195,0.2869331823492391,0.3299097608793653,0.9952643484486396,0.6404447525265353,0.6622068508022616,0.15214214170255466,0.18980403457243172
0.2422241494215172,0.28220842998950757,0.329142270355245,0.9966793845541461,0.6369542176049324,0.6585269148439544,0.15025890315489587,0.18748859312907162
0.23628700919132756,0.27756363475473833,0.32818396964415575,0.9981538226105577,0.6332344382361283,0.6545917661401129,0.14837929738831812,0.185159623525368
0.23043992880352698,0.2729396326683833,0.32699058820034155,0.9993092443194975,0.6293524553837822,0.6504564101582309,0.1464782373583736,0.1827999042545534
0.22465789575494,0.26830655454491936,0.3256804691681296,1.0002118851057789,0.6254862144753265,0.6462070850884903,0.1445451188323456,0.1804397935590854
0.2189570374196339,0.2636425239202916,0.3243268099117086,1.0008584865485717,0.6217256814365548,0.6418394741523828,0.14257651530306215,0.17810164484756738
0.21337275982871978,0.2589467027462435,0.32287263581348585,1.0010255425289039,0.6179094302473221,0.6371690415982679,0.14060261319598627,0.175753331295594
0.20793881784609697,0.25428517962621083,0.32137052047026626,1.0006601855520356,0.6140435665606307,0.6322602576239909,0.1386990939399642,0.1733641320059389
0.20266729647150736,0.24975456785404093,0.31984405529125887,1.000006541543296,0.6102810695891395,0.6274224012060732,0.13695834003947083,0.1709849320209331
0.1975495408658659,0.24532680870386894,0.31824897045652617,0.9991178851736546,0.6065475343506052,0.6226971764602487,0.13542176057640193,0.1686710814065017
0.19265066934212946,0.2409816494353983,0.3167168210054135,0.9983195270021258,0.6028051910397813,0.6178903580609427,0.1340418506249192,0.1664687758734071
0.18809293267947053,0.23675312530621004,0.315319896685663,0.9984306861246998,0.5991716966372603,0.6128897852702186,0.13282650602735074,0.16446889762601635
0.18389933638568398,0.2326402501522121,0.3139600663934958,0.9999198634615964,0.5957461181888597,0.6076752759048362,0.13180317848683154,0.1627849278481749
0.17997118750487529,0.22867539878339577,0.3126169731257995,1.002304522590689,0.5924090663885824,0.6022477892295869,0.13102468519276728,0.16144487980948327
0.1762071396874818,0.22487602430372677,0.31135804576532894,1.0044937521285513,0.5888590479678467,0.5966351922557241,0.13057474149257586,0.1602946966294286
0.17255689397359966,0.22125866161206048,0.3101674702769453,1.0060526581917182,0.5849616539980962,0.5908576337546837,0.13032584300029515,0.15925369241217527
0.16909926047128074,0.21791918279030922,0.30895650836037136,1.0073614828663482,0.5807357428287703,0.5849078023496215,0.13015583210548476,0.15835824338941862
0.16602309975668947,0.21520977760468463,0.30774727290372633,1.0086103509453568,0.5762865878610532,0.5787989285701826,0.13011493241102048,0.1575694589957151
0.16331480426185924,0.21329957379947148,0.30667457540398657,1.0094730504664113,0.5717752768161009,0.5725438215411007,0.13016414293413503,0.15682997786628522
0.1607336801623742,0.21170772627313786,0.30572683209037704,1.0098919845183494,0.5672088661514872,0.5661415030202241,0.13026607053571898,0.15610494161365196
0.15817640365539873,0.21013444123123448,0.304759122862021,1.0101334133662139,0.5625406712390913,0.5596246091702357,0.13044506973734052,0.15539442249281832
0.15578481233658453,0.20882781122612046,0.3038467951212786,1.0101379581079761,0.5577528782758706,0.552970980888186,0.13061070107442474,0.1546851036951962
0.15364093246950672,0.20789117109862226,0.3031688437484445,1.0102167764048424,0.5529154804493407,0.5461261242619171,0.1306831541089906,0.15393081618217944
0.15159566416736792,0.20704859450356178,0.30286282911823903,1.0105537712231956,0.5481222210073288,0.5391183295528498,0.1306530361704226,0.15314092829942338
0.14952634953554417,0.2061229724318206,0.3028995117565679,1.0106827529317526,0.5434025532606614,0.5320149306628457,0.1305248336930578,0.15235117946518914
0.1474627751469433,0.20511880736354965,0.30294303808636924,1.0103986859592562,0.5389116126682287,0.5248670558013918,0.13032967665823517,0.15154226822661496
0.1455537747922948,0.20403379599177288,0.3028392917387459,1.0096395626816053,0.5347039688927323,0.5177035964102424,0.13010409284725236,0.15068906444695226
0.14392150739917006,0.20288587101714967,0.30260145875743316,1.0083331568263334,0.5307178854744944,0.510512087736313,0.12996996945732142,0.14997483739291842
0.14252209324977175,0.2018125937647759,0.30220216589640453,1.0065780580292667,0.5268940948910115,0.5032806337786536,0.13004380861698206,0.14964161749097823
0.14129327681012918,0.20097890535341603,0.30166887296263883,1.0044690047675313,0.5231289468060188,0.4960781255071414,0.13034993152213276,0.14954613614488055
0.14017534324169093,0.2002815956478309,0.3010346617835256,1.0018161501787113,0.5193967840257976,0.4889370024274438,0.13083783270818583,0.14940403017224388
0.1391378094594889,0.199595064164287,0.3004315633141618,0.9985119679481352,0.5157398920201804,0.48176120195133704,0.13137879454728993,0.14929100839776518
0.1381915551653618,0.1989997367729634,0.2999390392133989,0.9949088781565794,0.5121652162480897,0.4744655554504646,0.13197667490854625,0.1493663789439103
0.1372867255574801,0.19850559673822699,0.2994792143307058,0.9912239274053563,0.5086124614283613,0.4671091161526682,0.1327822000522344,0.14973554342806114
0.13640902211824288,0.19798169076149952,0.29899093802256593,0.9872235363064307,0.5051309065941111,0.45985540500750227,0.13382568454125696,0.15047898159908188
0.13555811341076027,0.19737633052581932,0.2984959759453836,0.9831057956218715,0.5019080255908507,0.4527270186848655,0.13494868912844243,0.15137913253209587
0.1347269705784223,0.19676049971194506,0.2979884105382611,0.9793745409558587,0.4989490607991688,0.4455716160855723,0.13600626893636156,0.1523948872576059
0.13399576853407785,0.19624890909853152,0.29738236211371377,0.9760098933811131,0.4959846478708635,0.43839727932234807,0.13714065109660212,0.1537341919460668
0.13337424205572423,0.1958575805602374,0.2966559516661111,0.9728186490919275,0.49295771192615967,0.431412336193087,0.13854798151204592,0.1553816932923999
0.1327913655491971,0.1954412607151156,0.2959555160264449,0.9697294940203289,0.4902951074101359,0.42482256444218164,0.1400612632219636,0.15719537451675664
0.13221927834231562,0.1949345779822788,0.2954276936421661,0.9665403955020282,0.48827775437552146,0.4185904095619738,0.14149391023377864,0.15902585802205524
0.13164469197719134,0.19442217982019588,0.2949652036424717,0.9628977340590946,0.48665223774992233,0.41242553751186145,0.14288147327645917,0.16083053070303793
0.13108832764696265,0.1939582969213007,0.29443862029795603,0.9587578770844617,0.48508217329722664,0.40621062904342864,0.14423794383825592,0.16266225954006638
0.13056998848568388,0.19371510364773054,0.2938244934357867,0.95429351862695,0.4834663777547501,0.4000006603320616,0.145496503956848,0.16447798462988095
0.13008852248270059,0.19389719495996216,0.2931339062298329,0.9495364422895097,0.4817883405125914,0.39377466822607066,0.1466267636299102,0.16620310297417978
0.12978319712786707,0.19447254184762655,0.2925246250287457,0.9445240190311405,0.4799922128167747,0.3874992441165428,0.14763989308365275,0.16783988651731407
0.1298338594844039,0.1953031522339052,0.29218091151065845,0.9392922423275191,0.47808486049094523,0.3811759087040512,0.14860017784223462,0.1694240235256251
0.13023167667803986,0.1961564949175142,0.29202469737245285,0.9337888358780715,0.47616656173360766,0.3750201133930556,0.14965607823934649,0.17102981793634706
0.13100798024776933,0.19703075818847263,0.2919677539454677,0.9280108590382556,0.4742463301856309,0.36931133060840265,0.15086259335371088,0.17282192715996939
0.1321723169122108,0.19810470963147433,0.29223314470573497,0.9220359954830616,0.47217901270884394,0.36402227438639084,0.15231230252226347,0.17495767332622228
0.13352617932500366,0.19929508920552835,0.29278654811426114,0.9159053133514065,0.469972996980071,0.35904620784202895,0.1540467254569688,0.17733314390642577
0.13494636310567698,0.20050877073269693,0.2933608476670472,0.9096716184530607,0.4676899277160107,0.3542473005406398,0.15585123644527582,0.17965481791953256
0.13639518530386247,0.20175694177198042,0.29396795275320253,0.903385521303697,0.46530192776699975,0.34950213965705457,0.15763413017394648,0.18181581647211878
0.1378298869289632,0.20295666705674434,0.29458579378119704,0.8969283348094549,0.46299638325832654,0.3448798302610773,0.1593946247794689,0.18384109348518565
0.13924301054214655,0.20399523238269027,0.2950461588667551,0.8902869840692381,0.46085216828556164,0.34039286813181197,0.16103170468799577,0.18570116187139885
0.14071436101353152,0.2051327047580701,0.29538887665298036,0.883776751921011,0.45867044949274954,0.3359126703215505,0.16248229301087444,0.1873880333046529
0.14229347515608914,0.20667792773395496,0.29573907596142235,0.8774316554173105,0.45663548373023083,0.33136303677325124,0.16376646544459583,0.1889142916751678
0.14394071565218905,0.2086718637414585,0.29633678792675916,0.870836114998998,0.4551038998042772,0.32689178232675775,0.16493701570433753,0.19031218694765847
0.14562478785879532,0.21112651811465494,0.2973846300387756,0.8640274394737307,0.4539349540629121,0.3227204541121334,0.1660311810711817,0.19159931964003196
0.1472221181663083,0.2137654336575207,0.29850767410182344,0.8574025636377217,0.45275297460258257,0.31883335963512294,0.16707128246732875,0.1927592025798751
0.14870819012167935,0.21637747672812985,0.29966813811747883,0.851200590476361,0.4513056026890444,0.31508818080128637,0.16805197920849793,0.19381630364305902
0.15018000725422265,0.21896797929854825,0.30131123452591907,0.8455896505655042,0.4495188512439469,0.3114556223931535,0.16895484814002665,0.19476738283429024
0.15160333830987188,0.22145514502503388,0.30345451931787987,0.8403154683824382,0.4474225653568073,0.3080412726107637,0.16980914352661972,0.19555595568075257
0.15289868473021034,0.2238210054846521,0.30590703808682257,0.8349940881286775,0.4453531458856977,0.3050729536414261,0.17066295310728472,0.19616826493152933
0.15407035768263097,0.2261019778417225,0.3085660675067348,0.8294655494583384,0.44372595236439777,0.3026210657523011,0.17154221751126691,0.19663812302551953
0.15516940206489846,0.22828617697952402,0.3113331488568319,0.8238912831571171,0.4424096770100379,0.3004315254935531,0.17246503955428302,0.1970046965189873
0.1562313427611485,0.23027541028929754,0.3139334769911934,0.8184992944649694,0.4410912113055282,0.2983813848426457,0.17337514782251867,0.1972453760610457
0.15725008097103213,0.23202942811228103,0.3161912671786902,0.8131531488053053,0.43971843569678865,0.2965401107807117,0.17423878638769447,0.19733197040850636
0.15820645272659545,0.23367710583107107,0.3181593408316475,0.8078693872792952,0.4383685811154419,0.294900404366321,0.17507051277261754,0.1972911497985478
0.15918916233262603,0.2355357137127359,0.31989518959498325,0.8025902264491716,0.4369684092007854,0.2933547999303273,0.17580405124310997,0.1971218046723265
0.16026297604099893,0.23798876243510916,0.32154094834029356,0.7971667861332237,0.43543454093189615,0.2919207581916188,0.17644964645449815,0.1968296837247119
0.16148307169105358,0.24118857228460666,0.3233864392017124,0.7916974895769329,0.43384781260833377,0.2907552784208114,0.17709072826625194,0.19651400772368002
0.1628887161619227,0.2449324537022474,0.3258156721466623,0.786457047946572,0.43230565657671927,0.28976758364876926,0.17769344411981566,0.19622959268344878
0.16428996836206267,0.24899925618912847,0.3289079098872316,0.7819553938296385,0.4309279719169762,0.2890177610908073,0.17830568105399258,0.19590180920657374
0.16554526130677455,0.2534178222234944,0.33258455363529116,0.7781915121133659,0.4298760902282236,0.28872352004180585,0.17903340950824495,0.19547937074674096
0.1666597259434328,0.258074996253221,0.33689688913911453,0.7745954134235606,0.42926390196456976,0.288684825913383,0.17975056089571745,0.19496679849888937
0.167638406208049,0.2626550451111746,0.3415724339381226,0.771223451917893,0.4290795766491512,0.2886766603999672,0.18031649745589529,0.19437519015601454
0.1684996298451572,0.26713015481224167,0.3462365347818247,0.768309837181289,0.42920440957343864,0.2886041013654428,0.1807706738243142,0.1937419812670617
0.16925435558563096,0.2716209123680912,0.35087181418237784,0.7654897944418759,0.42961147343044476,0.28838978571687324,0.18117099584287408,0.19307627691574458
0.16987973898038963,0.2760086410201283,0.3554951074096609,0.7626282608931122,0.4305689205813626,0.2880333946294748,0.18148598756753237,0.19230658643487042
0.1703473672337592,0.280226722412217,0.36018938924795346,0.7601577032663682,0.4323661488824035,0.2875681900689125,0.18169899517229712,0.1913980560415044
0.17068370220138843,0.2843653739059941,0.3651543073421014,0.7583911281043575,0.43473092102792216,0.28724673009735824,0.18188110440827035,0.1903776541983586
0.1709141825592572,0.28837724994984554,0.37031313393647936,0.7569185490467081,0.4372485052719903,0.2872435992144567,0.182060226006693,0.18925791351436277
0.1710164420288705,0.29220381294108244,0.37563909005436036,0.7553073966736003,0.4401104090200108,0.2877254877929351,0.18216945732738546,0.1880442319285065
0.17101601175606773,0.29581599183052293,0.3810328535864076,0.7534917028410821,0.4432855345184785,0.2890318949613294,0.1821783003182702,0.1867351775449986
0.17102432994123345,0.29929316113039245,0.3861452868757592,0.7513818197933544,0.44626244431387674,0.2912460760949143,0.18217134039947713,0.18536290254005003
0.17117472746076898,0.3027916078213196,0.39092350618499705,0.7488989655115557,0.4488128697203782,0.2941793540328051,0.1822094446140228,0.18397828077241235
0.17146757082409456,0.30631371569319477,0.39591229849067233,0.746075116899969,0.450926138091967,0.2972895150639476,0.18221707235756932,0.1825698136426817
0.1717827259164969,0.31026289935049667,0.4018665814305292,0.7430414797846225,0.4527796693398671,0.3004187788461988,0.1821219951658057,0.18110646739705058
0.17213229079841585,0.31491765490141155,0.408678476263667,0.739836843402257,0.45501812686215465,0.3043121210039321,0.1819488258710218,0.17960541155585516
0.17260803602234556,0.3197881820341403,0.41578263345708555,0.7364650466701501,0.4581173826969372,0.30917327307586473,0.18176129884011755,0.1780831059214103
0.1732107049070112,0.3249740631462986,0.42303914657800706,0.733016840466885,0.46162250842354063,0.3142601452380556,0.18155353309875694,0.17654194362056658
0.17386734043694904,0.33081094304568764,0.43044107505168067,0.7298599158140624,0.46490406062621803,0.3192103478591996,0.1812864930065862,0.17499091794273325
0.17452816180144193,0.33702420223407487,0.43793483784695764,0.7273657618819871,0.46790172731762375,0.32399829717371514,0.1809563262649946,0.17343195493034202
0.1751990350727898,0.34340427942994967,0.4453353746242358,0.7254478114510002,0.4707720420536292,0.3285729340210495,0.18055272297271355,0.17188027649838153
0.17587218979259261,0.3496970714293396,0.4524055835023638,0.7240628186316971,0.47354451179284424,0.3332266076850141,0.18007257811132804,0.1703170062698564
0.17663379433343976,0.3558668662660832,0.45917305134425396,0.7236101752790257,0.47609367874770914,0.3381519693154846,0.17955311121597842,0.16872409935685637
0.17775339383064506,0.3620200276677287,0.4658048635033766,0.7244643310682194,0.4787744553937426,0.3431719943304258,0.17904333426885066,0.1671378112814444
0.1793012676415814,0.36803767675701143,0.47225371080644657,0.7261598294772801,0.48213346853284883,0.3481640612728612,0.17853663238339204,0.16556607182734367
0.18098987199992958,0.3738998348821327,0.47850794637453586,0.7277157524191896,0.4856900426600074,0.3532850284751914,0.1780133032546341,0.16398302236254048
0.18265768408839542,0.37958754170665443,0.4845231875737434,0.7288825969287671,0.48889059656988,0.3587516728798544,0.17746788872817895,0.16238399675762735
0.1843240551588611,0.3851296309412665,0.4901301780813257,0.7297831196766239,0.49184780097377856,0.36453032302185323,0.17692193297957373,0.16077791898825944
0.1859005216538397,0.3904535345619185,0.4953813615046844,0.7305216279881619,0.49454931809194985,0.3703143453326937,0.17639604447621915,0.15916664608118897
0.18734935279296108,0.3954566189576528,0.5003138740456012,0.7317596729386796,0.4970705105528328,0.3758371700415195,0.17584974315634097,0.15755195937918695
0.18872818401867325,0.40022154108931446,0.504809768814132,0.7342766657463782,0.4995705574979409,0.3812920226169964,0.17525769968838603,0.15591550824778314
0.19003872609628386,0.40481422397230005,0.5087700178934275,0.7380079120893439,0.5018808153442127,0.3872515826224789,0.1746826470254359,0.15423976051578298
0.1913161111470697,0.4092577764112595,0.5121605874748686,0.7420345546081835,0.5039070119094013,0.39374833734098297,0.17414445984866217,0.15254141360477994
0.1926742080402131,0.41348084360505244,0.515156737301732,0.7464334723627125,0.5058400560508359,0.4001041325110659,0.17355513830106914,0.15082308923758883
0.19412825604231929,0.41746218611331015,0.5179799793934625,0.7520667867125636,0.5078024767742018,0.4059311722613464,0.17286398581361062,0.1490739425852593
0.1955189047350534,0.4213421837528934,0.5206685317951504,0.7584542016032708,0.5096841276229348,0.411273552539882,0.1720760948481791,0.14731037366876534
0.1967339054162652,0.42512818066318186,0.5232858255870371,0.765035275532951,0.5114399002659831,0.41618729286303363,0.1712098018701136,0.1455480837482401
0.1977663461888378,0.42864008586990815,0.5261266125585335,0.7719155863593868,0.5133476939408517,0.42085342529821834,0.1703094660181041,0.14378871862169842
0.1986499074961044,0.4318329322372446,0.529399074405943,0.7790286861670659,0.5158336475387539,0.42543866802024244,0.16939080779540325,0.1420204778348325
0.19944369370336174,0.43480441980375956,0.532760366974143,0.7865982859079097,0.5190240132707936,0.429808390356458,0.16843545246834432,0.14021871039828812
0.2001374678481708,0.43753455541087594,0.536123153443345,0.7949983970562629,0.5226644633940619,0.4337872185804466,0.16744591709277837,0.13837324084020974
0.2007349062923988,0.43993090224350695,0.5400056267616282,0.8040042981064736,0.5262906512997743,0.43730138080452974,0.1664045844787844,0.13651449379381783
0.20128642032172883,0.44199228010635316,0.5446020914556753,0.8131597539226191,0.5297392330189349,0.44038104891359287,0.16528796706752966,0.1346782705223421
0.20182021700736374,0.44369113966565205,0.5495962724178172,0.8222354758633378,0.5336163331508634,0.4431089907428367,0.16411378639067353,0.132878736890034
0.2023566087957155,0.4450817102184317,0.5546651968616598,0.8310523320314784,0.538521380503465,0.4455446590484878,0.16289236348677827,0.13111603583496995
0.20282810551966418,0.4463498811721097,0.5595734005462236,0.839679919211162,0.5443381092180816,0.44787892424290243,0.16160687267279195,0.1293635247075803
0.20323707208011768,0.44753317699584244,0.5642562697058712,0.8486998109624342,0.5505265246873603,0.4502476584312731,0.1602479672556126,0.12761576667460345
0.2037730376930251,0.44863414365411386,0.5687859350806709,0.8589487391256344,0.5569374671224103,0.4525200437273706,0.15883352140875212,0.12588761444118793
0.2045971148594999,0.4497020976357225,0.5729373588000207,0.8703099119774867,0.5638225151293393,0.45451086654075173,0.15742080190546665,0.12419325634037413
0.20571604557917916,0.4509313351789967,0.576535763204876,0.8816877040730424,0.5707733193622311,0.4562638703000683,0.15609801501963835,0.12257297532291284
0.2069287296283982,0.4525409831838157,0.5796752519471957,0.8926358216493312,0.5773657825822766,0.45816879672004285,0.1549227032639943,0.12105186036562855
0.20798922771384876,0.45440598113133884,0.5823794227925406,0.9033161440176019,0.5837495174068774,0.46060499005587535,0.15391633641666083,0.11974073183603255
0.20882958393917134,0.4562526797036782,0.5845375492230948,0.9133355261086933,0.5901547537569672,0.46354701141138416,0.153052486473597,0.118772135343978
0.20947861141237017,0.45781933904310546,0.5860977312926205,0.9224388927630229,0.5967883239409182,0.4668028901729879,0.1522188188997931,0.11803183151237573
0.2099439979829753,0.45896283917014974,0.5871446207957607,0.9311854523015027,0.6036606449375966,0.47076368711134947,0.15138808311671864,0.11733677948987101
0.21029344829571917,0.45971383696030843,0.5880271245884046,0.9404313821808132,0.6106009297816772,0.47581616028854473,0.15067461496238485,0.11671242764416953
0.21065201031675482,0.46010872194408814,0.5890590881587245,0.9503600057791464,0.6173454583545158,0.4816873551415271,0.15022109821595106,0.11630339736857605
0.2110323138242753,0.4601358444219652,0.590132730927116,0.9604573675405174,0.6237691929631971,0.4885432893507721,0.15003004609471657,0.11611409838020902
0.21149322044174318,0.45979778790705156,0.591104800098232,0.9705726672833003,0.6298598145656603,0.49636129461379724,0.1499230884460352,0.1160148175466573
0.2125322290392736,0.4592043514658135,0.5919119116749616,0.9804947811879184,0.6355858031970405,0.5043097584394552,0.14982312859849575,0.11594825122601654
0.2145176856282518,0.45860790024517856,0.5924869093975641,0.9897879382133248,0.6407435258563636,0.5118204036495393,0.14970990109580842,0.11593309989380098
0.21697195720752135,0.45809605849585666,0.5926721761035343,0.9984638126088092,0.6451253754004677,0.5188515175495358,0.14951723227396782,0.1159604579171411
0.21951794578891065,0.457712445230858,0.5925580147024144,1.0070021840408439,0.6487675239804228,0.525824993918159,0.14923538846180218,0.11597496395014549
0.22222943914891338,0.45766580899845516,0.5924784732533916,1.0156080492083441,0.6521465589462487,0.5332514234932743,0.14888857484119072,0.11595710462597959
0.22504982560548153,0.45814212966436485,0.5923184628723591,1.023989356593891,0.6558189002454926,0.540923432087983,0.148540123174873,0.11594173343683693
0.22794490634523318,0.45923856876183955,0.5918342546197098,1.0324085252472281,0.6595275621028169,0.5481543454916841,0.14821049891657903,0.11591538518912958
0.23088858255106387,0.46084688823198555,0.5911473796815188,1.041390658018287,0.6628261127103412,0.5547691443780988,0.14789251617342053,0.1158451325722931
0.23382241287796152,0.46305026617222705,0.5903207959739202,1.0505081475856102,0.6656088422804437,0.5609553655063437,0.1476194058107243,0.11573295133321412
0.23662364559102708,0.46613495615318545,0.5891474222075854,1.05954573086168,0.6681027445296295,0.5667122889800335,0.1473560517397145,0.11560082970192764
0.2394023137499243,0.4699928219809144,0.5875699159254016,1.0688658825480866,0.6707659220555953,0.5719460372882991,0.14708891233108634,0.11554336512760156
0.24259798827396364,0.47408509319152603,0.585687593672113,1.0779525646420685,0.6737087948237823,0.5765873754464285,0.1468785835750544,0.11563091426299173
0.2463432393251204,0.4780566489007336,0.5835422627077802,1.0863926211049795,0.6766957306645941,0.5809316906256281,0.1467562295192405,0.11589720654718352
0.2505035932608035,0.48210279334698136,0.581287828641239,1.0944600698309181,0.6794678648054103,0.5855894320664727,0.14671814523164733,0.11636096118845086
0.2550369368170688,0.48631666819585395,0.5791719035536586,1.1020496531547634,0.6819850537407378,0.5908232927378525,0.14673396160933697,0.11690617420689274
0.2599962300779413,0.490299130933007,0.5771704532822762,1.1090745207793844,0.6841623429085589,0.5965095802995505,0.14673446151641018,0.11747529171937798
0.2652177699170035,0.49404970711020546,0.5753205511698541,1.1157329518733197,0.6859121117571785,0.6024292515242305,0.146686880297016,0.11814027097342801
0.2703040196123006,0.49786903470518873,0.5743729102714038,1.1225960622787678,0.6875454314400796,0.6083792426350106,0.14663346904164057,0.11887624631271494
0.27512222884362847,0.501569917955088,0.5746369061340981,1.1303369847670768,0.6895538601965132,0.6141184833092558,0.14661464839224211,0.11957244670484198
0.27967270803636,0.504939980516395,0.5753241756517945,1.1383952810164926,0.6920863070090396,0.6197375085193096,0.1466891069256978,0.12017644085256218
0.283996128327062,0.5080705765093284,0.5759008429235911,1.1456996845585594,0.6947631994940022,0.6258311674958429,0.14693295063643813,0.12068496662830282
0.2884525384440713,0.5110092056047305,0.5763778435351521,1.1518480037977996,0.6971143453686374,0.6323395215906932,0.14739207088501938,0.1211217396497637
0.2935734190445796,0.5138950920022017,0.5767657340735945,1.1570383190430504,0.6992652917221523,0.6385161832303806,0.14809678501813653,0.12158305970939004
0.29973279400365754,0.5171623285857165,0.5770479545890813,1.161815383222583,0.70173748035739,0.6445835539094539,0.14899562434709496,0.12216101806609553
0.3068528438744069,0.5207310153824648,0.5773090560961508,1.1662861461157492,0.7049224077282839,0.6512692943537759,0.14991213627894182,0.12282324424981413
0.3146308810457291,0.5240430448493217,0.5776299357221576,1.1700049573321605,0.7089799186558099,0.6583328132524774,0.1508780977642604,0.12369247008222059
0.3227165627652088,0.5268857363303296,0.5778940247205588,1.172740151440524,0.7137545153782812,0.6656840148245721,0.15229158458177006,0.1250731007823481
0.33075441601479444,0.5295374933032275,0.5780366765007119,1.1750199068212572,0.7191435668734766,0.6739718957371487,0.1543992224603248,0.12690146393911045
0.3385782963100017,0.5326927062545236,0.5782301794100866,1.177343202907107,0.7249279616945901,0.6834753616826593,0.15699497654920233,0.12883541177910962
0.3459893700471757,0.536674120297103,0.5784453930142697,1.179639045043522,0.7305701167408716,0.6937579993825579,0.15969408755368888,0.1306478523901678
0.3528312725091802,0.540973971177705,0.578661108208846,1.1820401288720084,0.735763212198618,0.7038600459485548,0.1623691109681557,0.13228214264665875
0.3591555621375065,0.5449792196515122,0.5794520869937452,1.1849540920392967,0.7407490713851758,0.7130842570949052,0.16519903174818887,0.1337711903216311
0.36508560205109275,0.5485182804822514,0.580999831467237,1.188589841844484,0.7457324651224034,0.7215133625674126,0.16816101460751973,0.13513324145145816
0.3710473289748841,0.5518353181744463,0.5826147376200163,1.1923107661364418,0.750581656272218,0.7297955707073976,0.17105925429218793,0.1364393594070749
0.3774548253520791,0.5552577044481302,0.5838644266982955,1.1954677196322157,0.7552175637512742,0.7384240297960616,0.17384023514755598,0.1377776312689264
0.38402178144052895,0.5589380200451581,0.5851780923553209,1.19828942717048,0.7594444017865343,0.7477096605206937,0.17654648367653256,0.13913868177622116
0.39029365475676886,0.5626676105253253,0.5870999343836969,1.2009481960288975,0.7631220893443103,0.757848948329159,0.17921206453170718,0.14053357895363944
0.39625715555725194,0.5665075934431727,0.5893810317716529,1.203308135014713,0.7663110556375786,0.7680662385858271,0.181762626036833,0.14199962098997973
0.40198010078555346,0.5709977125305971,0.5915154956955057,1.2053799518050206,0.7694038733843316,0.7774590455479651,0.18421407601388526,0.14347212723388708
0.4073671296517897,0.5759449174369323,0.5934207202138903,1.207107307382782,0.773003470801749,0.7862212789261285,0.18661515644596283,0.1449092794389701
0.4127886805372226,0.5813713703612973,0.5951716873973044,1.2085235609767155,0.7773517880926822,0.7953881467827272,0.18887882071446344,0.14639814388690203
0.41878626732023555,0.5877056509345719,0.5969338731547773,1.2104164353135936,0.7822115119968532,0.8052140252390225,0.1911024583552518,0.1481356145744467
0.42508837296193597,0.5943138289962806,0.5988722375440332,1.2128837379334372,0.78680021409131,0.8147515000947857,0.19348624062249106,0.15029641728739968
0.43131463838756967,0.6007764649455782,0.600709814956519,1.2150891238201733,0.7908310599060171,0.8239169790828474,0.19592061751763132,0.1529536728131982
0.43735537300577243,0.6073677683648554,0.6021617151317232,1.2171087052941698,0.794692127777446,0.833379688551145,0.19817371770765968,0.15606986981885346
0.4433197826257955,0.6146173466417496,0.6032432964674489,1.2190221524506304,0.798273406795679,0.8429036257809075,0.20023787167894772,0.15936798964806498
0.44951297968517917,0.6228706939520869,0.6039896653236428,1.2202371802667513,0.8012827301227163,0.8517882820080708,0.2022129008885691,0.1628101986629203
0.4560393899609454,0.6315146019556384,0.604555073267786,1.2211105782005842,0.8038089070818787,0.8597586784835968,0.20411414351460008,0.16658749066832587
0.4629250340780753,0.6398685296727155,0.6051139871841389,1.2225455809220986,0.8061513046494323,0.8675154460802392,0.2059362845680925,0.17049445073896627
0.4702546286708041,0.6476495173680239,0.6058266125830258,1.2246969185103111,0.8089307555480018,0.8764510581215998,0.20790163883842488,0.17442138274461
0.478563425175899,0.655028727806659,0.6067925570005017,1.2272171448615408,0.8122927325177719,0.8867664118104971,0.2102695235473632,0.17845723093411922
0.4879211966400108,0.6626784060545449,0.6079196481159062,1.2294593166190084,0.8153662451208386,0.8977965399128418,0.21298004443547755,0.18247970463618718
0.497350662464707,0.6710273722265073,0.6091529932726314,1.2313999225685912,0.8183146386230522,0.9091988641390635,0.21586860396796329,0.18637852634883828
0.5061509502521203,0.6801976403456406,0.610373123124166,1.2335716985436649,0.8222370002344888,0.9207857390979959,0.21873746980391268,0.19008175997372706
0.5142272444297411,0.6899908893947432,0.6117465828551868,1.2356616340971642,0.8269802428257337,0.932317322018031,0.2213908353818513,0.19355421408941223
0.5218639621630011,0.6995950214750775,0.6134191602704446,1.2370762180945978,0.8317552877650701,0.9434572709272474,0.22377533030822858,0.1968426808168769
0.5292867835969817,0.7084406766357567,0.6150954319742289,1.2378835488659299,0.8362017874684695,0.9549272469835121,0.22600062594751727,0.200058956033091
0.5362638292228961,0.7166258210750831,0.6169608258090219,1.238523765134428,0.8401759495468932,0.967965480223693,0.22817178144665232,0.2032431875320795
0.5426138422558717,0.7242180576049332,0.6195602564976176,1.2391171722144914,0.8439084137896847,0.9827653564939286,0.23020213602108808,0.20626666051488488
0.5483646266488221,0.7312090781866849,0.622799142325264,1.239531512281783,0.8479610142341208,0.9987613301842958,0.23209584818355852,0.20905321053559553
0.5535634144765424,0.7378255246492393,0.6261986090572612,1.2400817208021022,0.8524830752643272,1.015705459444476,0.2339372591023923,0.2115903852964071
0.5583695794194334,0.7441775761619593,0.6299021734149853,1.241363098113822,0.857169020013738,1.0331858268739302,0.2356800621535844,0.21391331606551334
0.5632903039857088,0.7501301848198207,0.6341136813653362,1.2433025174965113,0.8617464505061119,1.0501326164155553,0.23725331441178746,0.21613604572399595
0.5685832973555038,0.7557551356641836,0.6383857784938948,1.2452076010150488,0.866329324375486,1.0664857948171702,0.23865617910228867,0.2183276422815144
0.573679023808002,0.7615493116204155,0.6421701450947952,1.246884108873067,0.8709330384628274,1.0832448914995942,0.23998162366988163,0.2204338551883723
0.5783604997526304,0.7676802856420293,0.6454776366249819,1.2483804712919109,0.8750975976548132,1.101124913772382,0.24129190646361445,0.22238281599434248
0.5830356786216846,0.7736461139606751,0.6487871139857473,1.2493487165179398,0.8788447513465976,1.1202805247965633,0.2424995039601168,0.2241995345627181
0.587813981696477,0.7791540315924699,0.652208957011424,1.249891091253475,0.8823762275248735,1.1407782036915193,0.24348736545194105,0.22589468968323573
0.5925258515319418,0.7841116448429848,0.6553672516542449,1.2501927274897369,0.885517468564597,1.1626802449576137,0.24437774736121082,0.2274451836757188
0.5969289317135105,0.7884177344835435,0.6579829055977937,1.2498425805151572,0.8884228050194277,1.1853562269060616,0.24533448908475294,0.22886917798621098
0.6012262828814927,0.7921098279883875,0.6600101152233938,1.2488425686597746,0.8913336919134149,1.2075137231896478,0.24620000625058894,0.23015073718772888
0.6060668883637945,0.7951842990749227,0.661472495016131,1.2474893362755104,0.8939662676952234,1.228271327693095,0.2468303365498207,0.23129481372280358
0.6115160703874806,0.7977653084492554,0.6625001538358725,1.2455655310923852,0.896229795846452,1.2473154788540375,0.2473688108782151,0.23235976518292317
0.6171008486423728,0.8003063953627256,0.6633717431304769,1.2427701936645787,0.8986395750891767,1.2645284163345871,0.24797267804128043,0.23336137381854405
0.6223686658941464,0.8029338745701764,0.6642336086809046,1.2390970946201656,0.9011601795839695,1.280180364534422,0.24855828186188375,0.23426799551598262
0.627308152498802,0.8051266366474451,0.6651053988315643,1.2346547839361217,0.9031558801003908,1.2948054360497867,0.24898544559757535,0.23500265132321013
0.6321895599516444,0.8065939019402231,0.6660527001794997,1.2296882420683106,0.9046876760388795,1.3092832517690531,0.24928069993504132,0.23553867521154812
0.6368301787097271,0.8075329301740666,0.6669710274145118,1.224412251771983,0.9061419756135667,1.324535581106536,0.2494829218932621,0.2358975534053451
0.641028727764649,0.8081128610088288,0.6678540671045269,1.2187383789038362,0.9072733621946969,1.3404605537639176,0.24954247145184794,0.2360665796687747
0.6447669346384818,0.808482458693927,0.6693376658418011,1.2126024743359771,0.9080011727541907,1.356318225359401,0.24943874732087126,0.23606721299295483
0.647907418164405,0.808897887015131,0.6716884752005561,1.2063247220741524,0.9086230526416241,1.372236616016601,0.24919231682192322,0.23601374577081094
0.650526608898272,0.8094971583089973,0.6741310848831088,1.200151355461972,0.908989227883864,1.3886189340289326,0.24880961936201787,0.23596206826553573
0.6529388136291229,0.8102516470152014,0.6760908412987753,1.1939567651457041,0.9087627873303222,1.4048140949550594,0.24829694607227126,0.235851979006644
0.6552844174608006,0.8108864413791596,0.6775400337765253,1.1879551184897026,0.9080432479942252,1.4201326292365235,0.2476604401777415,0.23565937882177235
0.6576375955882771,0.8110985761328069,0.6784927644909888,1.1822909160699575,0.9070666833377358,1.4348987107134268,0.24689272558570038,0.2353412375965871
0.6600960363293368,0.8108928417980357,0.6789295723195646,1.1767744414647052,0.9060056684466665,1.4498174304750922,0.24598018746077235,0.23486320230333219
0.6623786677701746,0.8103477696398055,0.6788122820766846,1.1715450058075525,0.9053329143500525,1.4651886781497363,0.2449300002985875,0.23428617049608796
0.6641633144484983,0.8095655496686192,0.6782653753758059,1.1663076880993557,0.9051057436579619,1.4806302789635655,0.24374247375479094,0.23364843105750802
0.665489951851174,0.8086040443190392,0.6774217109926913,1.160673415866612,0.904930598840522,1.4951882341671676,0.24241135066679725,0.23289975018163653
0.6664440621351263,0.807291452184621,0.6761545943922682,1.154825341723381,0.9049123634019581,1.5085525912658904,0.2409976439600528,0.2319854981917737
0.6670475987808764,0.8054570907141596,0.6743432455342618,1.1487917745653922,0.9055523687577077,1.5212169620928655,0.2396199684790975,0.23091375285177293
0.6674221890200476,0.8031454629061038,0.672033121355897,1.142379335682735,0.9069684832897311,1.5335739522680718,0.23837169185513207,0.22969907889949426
0.6676442799202189,0.8004464002714172,0.6692815568470672,1.1354034156697488,0.9084971332887547,1.5455715019057974,0.23725508197514866,0.22839566185616306
0.6676400526776655,0.7973994029384546,0.6661438216122717,1.1278083187465113,0.9094767290568809,1.5566185981827325,0.23621200746896398,0.2271289637108518
0.6672722553367539,0.7940091606432422,0.6627400158068426,1.1198355492251058,0.9097095482483869,1.5665319285083403,0.23517342024002102,0.2259119836197789
0.6664834969065616,0.7901802013920579,0.6592387649822303,1.111983919312698,0.9093615373385829,1.5755450841648433,0.23403983866527867,0.22463676066940783
0.6654466092496314,0.7858884851477009,0.6556677418374233,1.1045499269573438,0.908953033657295,1.5835347048618131,0.23283654311287594,0.2233204289349574
0.6642469216943768,0.7812652402722877,0.6518194754833034,1.0972618479999139,0.9085806637402375,1.5909320274910879,0.23164127029665246,0.22205296309123299
0.6627255182940108,0.7763427091374915,0.6476829853295107,1.089598873332511,0.9079490348638848,1.5988187162151157,0.230374594087892,0.22077328967637852
0.6608243029586879,0.771071790472101,0.6434887405726772,1.0819524201354658,0.9070098496795148,1.607399899282888,0.22897398076913053,0.21936951340912486
0.6586284759622688,0.7655596300568952,0.6392767300619436,1.0756730293922292,0.9055768015525653,1.616015318203327,0.22749340463655657,0.21782163878301194
0.6561997616542788,0.7600694133139384,0.6349180731761664,1.0712823480021534,0.903505586613738,1.623839481169197,0.2260180014316024,0.21621765360686637
0.6535372533214793,0.7546389168766033,0.6304902101742311,1.0682211498249188,0.9009395980927852,1.630391087010078,0.22457571458208955,0.2148423548583341
0.6505868217331102,0.7491103254183165,0.6261274564474755,1.0656256153479473,0.8978961283745975,1.6358996319845422,0.22313306763816854,0.21398131441160687
0.6473571414746107,0.7434865533362036,0.6216306159221912,1.0626088403229397,0.8943520636333556,1.640685935608398,0.2216446673527822,0.21351941241314978
0.6438634657167468,0.7376635050029077,0.6168627659390944,1.0590783815987599,0.8903994389981497,1.6452715235713722,0.22007382322857844,0.21311882391139164
0.6400270362963446,0.7314682552972395,0.6119338899858326,1.0554210119368757,0.8861199985740931,1.6503694022849116,0.21840557665902788,0.2126368661527823
0.6358463939928323,0.7249630755656193,0.6068891739450313,1.051659149285394,0.8816123075502507,1.6562064540573112,0.216619027165347,0.21216445784941826
0.6313940208091693,0.7182412600590832,0.6016716626110241,1.0477006770516686,0.87712464514167,1.6631661369550794,0.21476115628209322,0.21178187154689743
0.6266927096067605,0.71126522482278,0.5962002988482371,1.0435044731845236,0.8727607628422661,1.671146144748076,0.2129505182509051,0.21139196991593082
0.6217711890409714,0.7040260084118668,0.5904579666318281,1.039165151243563,0.8682520565077052,1.6790113091077488,0.21118680856117747,0.21090184392091685
0.6166838957400957,0.6966022103014626,0.5844954148806699,1.0349538721642186,0.8635222551225176,1.6860102005288973,0.2094028310874481,0.21033637999205196
0.6114295731265387,0.6890290767994541,0.5783145980810952,1.0309159390747453,0.8587192520691007,1.6919931863035447,0.20759450295537635,0.2097528855914642
0.6059068911729184,0.6812334914462449,0.5719175965056245,1.0267401634718292,0.8537438901495089,1.6971457287562588,0.20577131413462646,0.20914602162963516
0.6000927278617165,0.6731524158719729,0.5654202699588539,1.0223563354794998,0.8484948016204099,1.7019469003773988,0.2039222986802831,0.2084639019170537
0.594072222646259,0.6648394879656254,0.5588867385825756,1.017924819587104,0.8431159824227098,1.7070692446869629,0.2019968763961781,0.20771045533502944
0.5878534688465957,0.6563662964118028,0.5522713957800933,1.0133717350315607,0.8377452962098086,1.7126008346704198,0.1999868546062986,0.20690956675411126
0.5813909118400423,0.6477279281428014,0.5455708115583107,1.0088805952604236,0.8322538555240584,1.7175357103588873,0.1979312800126499,0.20610418676084452
0.5747348153748034,0.6388997851999224,0.5387817872741729,1.0046870526850709,0.8265519202343277,1.7212665587645655,0.19584748860701487,0.20541563525310236
0.5680537929459889,0.6299989268136991,0.5319949520271583,1.0006217605238081,0.8208279773247038,1.7238354146363066,0.19381894980568995,0.20494647531329183
0.5614088654783741,0.6211307094988515,0.5253772258456438,0.9968034174399618,0.8155765839196828,1.7256580213090849,0.19189870859157188,0.20464082425543964
0.5546711605882493,0.6122220450426754,0.5188808471847518,0.9933118957050445,0.8111098863935013,1.7276810241368903,0.18999699521616786,0.20431803686350564
0.5478378429571897,0.6033367795095131,0.5124132112084463,0.989989272715069,0.8070370555358533,1.7302013154500944,0.18806135287749334,0.20393236777118465
0.5410199540077494,0.594743226436806,0.5059659410469134,0.9866976974491413,0.8029504361131615,1.7326265456366339,0.18616198428417738,0.20366744268680376
0.5342300914570668,0.5865840965918843,0.4994374008383804,0.9830779569694016,0.7988144569712103,1.734236421250926,0.18435932041910139,0.20356507196697454
0.5275070223306894,0.5786745538499445,0.4927638796737311,0.9789739719502517,0.7946753718507669,1.7348976715192093,0.18263752729896718,0.20342439775884302
0.5208409628179578,0.5707439500661636,0.48597149265947215,0.9744909794644685,0.7903434190786294,1.7350654109734285,0.18094795118090795,0.20314024513684178
0.5142224992375091,0.5628209148303736,0.4790652769305531,0.9698369845423966,0.7856305835735202,1.734841155287163,0.17923733557724114,0.20275923920143352
0.5076760108118514,0.5550063717843332,0.472050160620919,0.9652712917597401,0.7805713389489676,1.7338543702921965,0.1774881884144462,0.20233275835747175
0.5010977147159404,0.5471894894785988,0.46495770665907354,0.9609081329357001,0.7751989951579011,1.7319920543956024,0.17576404640970847,0.20186987647148188
0.49442848457789546,0.5392709410035971,0.4578181810292583,0.9567429190405118,0.7695724607190083,1.7294812596146982,0.17411897511304839,0.20137262228184893
0.4876653388647535,0.5312427313881519,0.45062046418713536,0.9526172924182406,0.7636814700667356,1.726472937644427,0.17247758111797853,0.2008162257331328
0.4807854584170736,0.5231240627805545,0.4434342074325242,0.9486672348637194,0.7575231450090125,1.7230651590257877,0.17090814882511532,0.20021048005433414
0.47378718627456184,0.5149601340232932,0.4363527680284241,0.9450293353563284,0.7515162056348541,1.7197933911380954,0.16964976057940792,0.19962497412746666
0.46666905178195456,0.5067741656166881,0.42929819622632703,0.9412856976120157,0.7459874843488234,1.7171362708366043,0.16863662681052594,0.19903264985935834
0.45944313582099994,0.49858170430721577,0.4222159616106911,0.9373375556028757,0.7406942147377062,1.7143676278918798,0.16762505938152825,0.19836082990574633
0.45214784215545123,0.49042437132197186,0.41519433520107646,0.9334048725900902,0.7354106387646488,1.7105188323109421,0.1665557932415489,0.1975801876854319
0.44484003050486276,0.48232188740595305,0.40824414807411274,0.9293570544541437,0.7300812625479655,1.7056472252768777,0.16545911188925164,0.19669620587429537
0.43761421748460755,0.47423957572664605,0.4012820882995622,0.924982375967556,0.7248402546993143,1.7000760817607667,0.16435732332727931,0.19576771629222106
0.4305741051092902,0.46622447835391995,0.39438893873913916,0.9201722316236643,0.7197958101793079,1.6939214110796081,0.16329851488176023,0.1948911528387794
0.42376522196993843,0.45832821414525843,0.38776893832872467,0.9151173379087132,0.7147971661664921,1.6873014305243854,0.162295212915138,0.19417208052773144
0.4171573494197328,0.4505465564333793,0.3814700958316692,0.9104951203682491,0.7096599514950152,1.6802226940579192,0.16127911440249534,0.1936511512704977
0.41065452839879785,0.4430023847099139,0.3754444203114701,0.9066322226039771,0.704288172322919,1.6727253435021894,0.16019158282565463,0.1933336293306849
0.404338703262424,0.4358397531145651,0.36971928811159255,0.9033857155309323,0.6987239518876515,1.664874924224947,0.15907688807017953,0.19316418024226673
0.39842848186993735,0.4289754508843096,0.3642804800199951,0.900517996838644,0.6930880001451275,1.6564603499786215,0.15808437770579994,0.19300281381289863
0.3928718283906256,0.4222493638222538,0.359013828999483,0.897600845219147,0.6875159085548047,1.6472468224328045,0.15723644407010162,0.19282927672649133
0.3874314202163508,0.41570878089225977,0.3538500788107631,0.8944052167744093,0.6822643477456662,1.6374517910412856,0.15638053202463026,0.1926710092306184
0.38199379690004337,0.4094188148237097,0.348716197537748,0.8908192651300495,0.6775718389786495,1.6273172468796329,0.15551112865606642,0.1924673269748792
0.37657077305453013,0.4032609860696529,0.3435155543098091,0.8868299845340866,0.6732247255549773,1.616754066959916,0.15469651914264068,0.19223377206828166
0.37115357791570874,0.3971084642902219,0.3382426993369821,0.8825991586128403,0.6688778970162814,1.605764332475958,0.15386824925692003,0.1920587855526491
0.3657672460081192,0.3909402149144546,0.3329459770061297,0.8782082281720363,0.6644619920725242,1.5942902724044616,0.1530143403619,0.19190656142862916
0.3604824958304382,0.38476956241122423,0.32763153815234247,0.8736149022954917,0.6599909617589257,1.5820898871078017,0.15220359057066704,0.1917695715349029
0.35525321342424526,0.37862931239947534,0.3222718536514793,0.8688725266326662,0.6554715181158892,1.5691931467952043,0.15152182447832357,0.19171414564428133
0.34997506163631603,0.3725708733973324,0.3168740641464332,0.864480231452986,0.6509769877846483,1.555896829732921,0.15107775634965184,0.1916632472996278
0.34462851605251726,0.36665671282270595,0.31152526821169857,0.8605741350176669,0.6466443463894309,1.5422979963446608,0.15087485733278475,0.19154986934809537
0.33930194201413666,0.3610667913721781,0.306435765266528,0.856782524433999,0.6424774276752365,1.5282089711510887,0.15082929749524537,0.19139020829116013
0.33412664722736707,0.3559662503257535,0.3017329200641502,0.8534584406955568,0.6382524163510012,1.513470765470556,0.1508607379442819,0.19119980147327575
0.32912779788560587,0.351198342220186,0.2972506932322658,0.8509725613356779,0.6339558580244059,1.4980121578770742,0.15107946339724773,0.19102697049682424
0.3242490647554511,0.34647240508777416,0.2928166759579996,0.8487827285166396,0.6297421009092449,1.4820732713587295,0.1516375868704356,0.1910650111078369
0.31946988027107565,0.34176443379852034,0.2885065994875854,0.8465238357183831,0.6254444660293074,1.4660246627570612,0.15242621718305588,0.19149192959266856
0.31477047454958024,0.33719185408928876,0.2843727265463494,0.8445019327870962,0.6208835407800871,1.4498197345566095,0.1532674271294563,0.19213663764074632
0.3101385457673319,0.33273982496545174,0.2803779611965711,0.842675243262007,0.6162289470206993,1.4332937179406104,0.15409794607022753,0.1928018417778147
0.3057360963558125,0.32848763734157477,0.27660703242870377,0.8409635019427794,0.6117165713944425,1.4165032648623181,0.15507789968359906,0.19355286864849744
0.30173123907703453,0.32452431541466253,0.2730672256272508,0.8398781846491795,0.607244300722704,1.3996967133561133,0.15628007945514769,0.19465938776373523
0.29795009957336094,0.3206606117160762,0.2696649971350041,0.8394131749631426,0.6025272138553622,1.3829043605619336,0.15750646090913323,0.19624528750098794
0.29418602771737945,0.3167622082803642,0.2664110248472777,0.8392745273679988,0.5976473631920596,1.3659479087309598,0.1586678909324852,0.1979539069486167
0.2904285438747957,0.31290123623176114,0.2633086935512616,0.8396086561220361,0.5931313515025847,1.348790685789072,0.1597259550641311,0.19957768497178205
0.2866743034115316,0.3091065402785478,0.2603544085898914,0.8405083547437562,0.5894223724857928,1.3313309475859136,0.16071086752886757,0.20121234417082104
0.2829134179535887,0.3053588459796753,0.2577050514868704,0.8417877141449415,0.5863151014436202,1.3134449196404432,0.1617652613960948,0.20276223017264738
0.2791765509795357,0.30168647279235594,0.2554903340208319,0.8431548764041289,0.5833785470287732,1.2951884526188213,0.16287841335536032,0.20418941486782688
0.2754996962117284,0.2981431806131606,0.2538004817858343,0.8443974414454954,0.5808421339752652,1.2768894518778267,0.16401326554809126,0.2056048278145886
0.27186373764656513,0.2947668966034366,0.25264106132970304,0.8452187562522572,0.5789583605214224,1.25892847381802,0.16516777933453816,0.20697418430822406
0.2682236066924267,0.29148007729334385,0.25173607512643587,0.8453354659473159,0.5777140559210475,1.2412613677157445,0.16625975423498715,0.20820456040850618
0.2645428832553106,0.28820177664054797,0.2509951086555327,0.8451324329722526,0.5770893184596284,1.2238055020359782,0.1673042256356943,0.20928074998031038
0.260806826976488,0.28490804562905425,0.25043849339487617,0.84533914527686,0.5768371906845287,1.2072438309397833,0.1684025388057885,0.21024184418165362
0.2570749369749492,0.2815425611053568,0.24987823473324605,0.8460312006282041,0.5770085833034136,1.1920281879991066,0.16951786385790854,0.21113871843807114
0.2534041227344475,0.27815849205288434,0.24934177571002442,0.8473539885201794,0.577591612162545,1.1776266948588625,0.1705414094767118,0.21206021504127703
0.2498420757429054,0.27490700418087244,0.24894226121784763,0.8495195169173705,0.5781867268008838,1.1639309578808281,0.17143606016608406,0.21307791984402266
0.24650116952512835,0.2718055329651721,0.24850029104885898,0.8519742542671104,0.5786256786160645,1.1511241084814727,0.17220655349761624,0.21413986778359873
0.24340844931863015,0.2688304956435764,0.24821871548902946,0.8544491964618061,0.5792290699350863,1.1388322134550664,0.1728976567563323,0.21516287952322097
0.24052268592512677,0.2661664767886553,0.2487928614067886,0.8575695557640206,0.5802566104516517,1.1265700590738872,0.17353889654339677,0.21607411393883363
0.23785772964527277,0.26396299552101704,0.250312021120292,0.8619795535799631,0.581508355414305,1.1140540092641429,0.1741050768492835,0.21685080490672007
0.2354533595379768,0.26209519062454506,0.2522790162707027,0.8672043602326975,0.5828396341593164,1.1020025200662975,0.17463234264285107,0.21754485102390853
0.23322702725656422,0.26042993091011285,0.2545120236686115,0.8722541174197956,0.5842724489928031,1.0911023775590778,0.17520210741399186,0.21812574390379783
0.23097925264324748,0.25885973289859954,0.2570040135277157,0.8767036558638194,0.5858678637798049,1.0808460550502257,0.1758253461501449,0.2185443523219004
0.22865964995275162,0.2572348904926996,0.2594738873993976,0.8805413333484375,0.5875370408032209,1.0715765178384375,0.17647238955557407,0.21882738228700063
0.2263337535849362,0.2555392891561293,0.2616728415541642,0.8838435217018383,0.5889742952070075,1.0636944200287939,0.17712152062531203,0.21900051015527217
0.22405757017757993,0.2539782194311208,0.26378436102470587,0.8865835015817556,0.5899609954771972,1.0562110446880566,0.17774527812593285,0.21908171663216597
0.22186456666876658,0.25284152416403527,0.26608433098355905,0.8887696873174383,0.5907029751598697,1.0487552480012337,0.17836422036383018,0.2190348021588599
0.21969975793772384,0.2520717432830342,0.26842862250819594,0.890731588034189,0.5914508469272145,1.0416606413505112,0.17902476072239296,0.2188386358771625
0.21751720704876068,0.25131269155079955,0.27064589742880174,0.8929517589886661,0.5919829962216383,1.0346643118773922,0.17976456951553124,0.21856006669527347
0.2153732797576184,0.25049777599253975,0.2729401134068912,0.8952831141895724,0.5921077051681708,1.0281364708047376,0.1805794877903225,0.21820294448105124
0.21330848317461393,0.24994445083853656,0.2755798360677743,0.8975581083041536,0.591916104723435,1.0230793265931442,0.18137186145520715,0.217704168097743
0.2112946281828759,0.24975554375215614,0.2784472131652979,0.9001447216943141,0.5915424726832734,1.019092866852745,0.18206167378009047,0.2170770608056633
0.2093448172049279,0.24962121885933042,0.2813557485972145,0.9033077253959023,0.5909817082811873,1.015265238206498,0.18265271573395403,0.2164815817717084
0.20766541411997455,0.24945231649682947,0.28444793675943447,0.9068919847980738,0.5900552782678266,1.0116868371282641,0.18314870890069626,0.2160172207572487
0.20640675225114746,0.2494778247797417,0.2877729850564268,0.910447832237796,0.5888267692143655,1.0084572630884694,0.18363353635114,0.2155918107622616
0.20535118426543375,0.24981630383830367,0.2911905309921144,0.913993127313109,0.5879256021937277,1.004989483237705,0.18424093431919294,0.21519069791656234
0.20425689513781997,0.2503267932045585,0.29451942072887266,0.9174714182016228,0.5878331827506256,1.0012704532283583,0.18499841970753234,0.2148934450539703
0.20309319424238287,0.2508208043361076,0.29768674761292274,0.9204209277550319,0.5880999257568013,0.9978295004239393,0.18591211087314843,0.21476268532158382
0.20193776693391857,0.25133869210509063,0.30086362357345914,0.9230423080647179,0.5881015439821358,0.9946244328611382,0.18688742017284607,0.21478462382611183
0.20080474107239063,0.25189897679546425,0.30405325252582693,0.9259022218398332,0.5877893836252727,0.9914742593150584,0.1877803232731147,0.2148121986463057
0.19960731963356865,0.2523454981284449,0.3071182818057468,0.9289206826872157,0.58727098507872,0.9882726603187987,0.18868714256147004,0.21479833654786493
0.19832939918405523,0.25263596707442115,0.31005448101253735,0.9317001012622426,0.5867831336176117,0.9848578127192916,0.189760174760709,0.21495880214253807
0.19699576952799194,0.2528236863461838,0.31289135773111765,0.9341880085246279,0.5869333945945651,0.9811085612514029,0.1910245906954079,0.21538615418258023
0.1956636267501813,0.2530199151021524,0.3156371752823418,0.9364013565226958,0.5879479591791693,0.9769227103662804,0.192450794956703,0.2158544316505221
0.19446122546397007,0.2533243834172582,0.31821300840145245,0.9383833695171057,0.5892266682687138,0.9723767618745498,0.1939434625056365,0.21629454444426366
0.19357129513891033,0.2536384902954446,0.32061707123024613,0.9406503194845365,0.5904826844821641,0.9676311581545538,0.19547820615436534,0.21678083709177032
0.19320843854770758,0.2539949434007712,0.3228678792130416,0.9433480984156386,0.5921637402926768,0.9628462480572698,0.19710520336637455,0.21729746139356454
0.19328324177711922,0.25458545105936453,0.32501672090951994,0.945780098165535,0.5944035190352316,0.9580484170811827,0.19875870079167168,0.21786934429624444
0.19339551413639847,0.2554393877482456,0.32717961405051377,0.947861917221685,0.5968345946404943,0.953022222233087,0.20026880162852864,0.21845341662285078
0.19338974201778494,0.2564441920766957,0.32938060369315747,0.9499009452684999,0.5990184059364587,0.9476019190758013,0.20156673396387828,0.2190485847812691
0.19343152367238572,0.2575722799548624,0.3316159093884833,0.9515962053579223,0.6008031268909887,0.9418834125599553,0.20274738219378316,0.21974070939444332
0.19359898370026585,0.2589241801023765,0.3337548487132243,0.9525732143756579,0.6023314105976064,0.9360523312139651,0.20386150489274768,0.2204580493477086
0.19377952364309,0.26044205960851036,0.33563908148663113,0.9528221259078848,0.6037199006822215,0.9301593123879296,0.20491760335552905,0.22114532869597406
0.1939055412545986,0.26194340539697936,0.3373580886622105,0.9526685220686372,0.6050936787377156,0.9241859931741172,0.20593723736885694,0.22182324810068985
0.19398597016704003,0.26332719719662645,0.33905110982813935,0.9523373075693046,0.6066793802406517,0.9180145968619828,0.2068274037940309,0.22245144409778989
0.19400265598625044,0.2645504058299117,0.34060397851648155,0.9519635536114062,0.6085866120581235,0.9115259701604695,0.20749926605952712,0.2229779833674476
0.19394498073532582,0.26554528322537546,0.34190093886839334,0.9518169078048097,0.6104652626468955,0.9047602209535146,0.20796166222137755,0.22335328756406664
0.193863033233774,0.2663408491909374,0.3429184298161329,0.9520213615242924,0.6119470328468406,0.8977292379113941,0.2082366204006403,0.22359693838393774
0.19375794737945426,0.26702522845012966,0.34368098565823263,0.9525012863009472,0.6129875654786323,0.8905048227201318,0.20833870646248706,0.22380802512749698
0.1935439127299133,0.2675491044107639,0.34429923805027374,0.9532709916552305,0.6137253777115098,0.8835302570069686,0.20827533423599515,0.22397438721070606
0.19321249852774816,0.2679122602331437,0.34481897673129425,0.9549656792392652,0.6144604083786499,0.8771892020707563,0.20814067251579138,0.22403094804944745
0.19284935706577402,0.2681948751154062,0.3452840966953225,0.9578310126415495,0.615225498502186,0.8712864149384285,0.20807166837137264,0.22398242459623913
0.19246958959225802,0.2683600604991929,0.3457299521980683,0.9611046424627753,0.6162459256038848,0.8653539039850279,0.2080722211391297,0.2238066864577842
0.19203416952893182,0.26831915660479977,0.34621043759031145,0.9641906731044992,0.6180444848517562,0.8592114816432899,0.20805907614798547,0.22346931585568788
0.19155930761132062,0.2680811588046671,0.34700439418046763,0.9667867236810029,0.6202646992903857,0.8529678033652994,0.2079592958472383,0.22303115008552635
0.1910404903321418,0.2677217213884601,0.34815092078148474,0.9688046053369915,0.6224381429323129,0.8467068427303781,0.2077433116497174,0.22259728166799694
0.1904199551274832,0.26731332823076015,0.3493527790245524,0.9702273793072468,0.6249257914670711,0.8404554531866736,0.20746986950167287,0.2221946865448078
0.18966260564669724,0.2669989060826856,0.35058634622004936,0.9708923264703236,0.6279121676636036,0.8341925103109122,0.207195217938496,0.22175553483201896
0.188781804461972,0.26684822035975997,0.3519292849327991,0.9707448198251597,0.6310651616049668,0.8280917114937982,0.2069063027671927,0.22119492171368915
0.18779713859612432,0.2667205820734785,0.353308686215676,0.9701278619261854,0.634220711736733,0.8226065453645233,0.20661739466918563,0.22050529478385575
0.18674750202912851,0.2665014516731371,0.3546614602282058,0.969390060785535,0.6374224621729632,0.8176620667346184,0.20629534248870604,0.21969961225339077
0.18567684723079494,0.2662150744884961,0.3559874580766655,0.9688315620885127,0.6407589174905476,0.812764850147558,0.2058817238792517,0.21875695149051586
0.1845536914543552,0.2658847071589019,0.3571795879220654,0.969133766481907,0.6442076308675664,0.8078507101774239,0.2054076611201373,0.21768417514443072
0.18333459885552364,0.26555269600777137,0.3581021112133053,0.9700517146362411,0.6474394686697952,0.8028850108159565,0.20486955261508558,0.2165147170737048
0.18202491545201,0.2652862925465767,0.3588260270099444,0.970942654589749,0.6502066691216688,0.7977878693067636,0.204223899387164,0.21526727965608064
0.18065658621947048,0.2650026714521262,0.35947292838946554,0.9719339330026163,0.6525534959152904,0.7926033483779714,0.20346931231749069,0.21393976995437305
0.17926691049531635,0.2647897721614144,0.36006559543571964,0.9728129679397424,0.654529381003531,0.7874004241293727,0.2026313116384365,0.2125235773332887
0.17785147160869266,0.2648586774381783,0.36056569706634933,0.9731291435559203,0.6560014455669637,0.782412241833908,0.20171433123498209,0.21101055096178722
0.17639938373956665,0.2652438762473391,0.3610102027885085,0.9731005070706974,0.6570436502420416,0.7776543432299711,0.20074274642408738,0.2094397893798007
0.17492701332445607,0.2659914253372663,0.3614144713623562,0.9732435169578612,0.6579812228676756,0.7730544549410495,0.19982015742786344,0.20786880565055857
0.17343666324793333,0.2670514268152685,0.3616127121972895,0.9734168569473082,0.6589448383302573,0.7688508456676483,0.19902555721888818,0.20629912611231957
0.1719439255861796,0.26842933714793454,0.36157357138763135,0.9730774793698658,0.6598722610072889,0.7649501214474853,0.19830734933180896,0.20471215165274553
0.17045034523784103,0.27025710189191343,0.3615213529875103,0.9720741578856096,0.6606772509328622,0.7609216707989325,0.19752918833816613,0.2030901081056837
0.1689841445960882,0.27242649003425884,0.3615569650266349,0.9706105485063768,0.6614378969134123,0.7567949913174852,0.19664762916532819,0.20140934160771692
0.16768595439974782,0.2746263794898487,0.3616297546568593,0.9689353891142277,0.6623492842887984,0.752631823345982,0.19572150384031198,0.1996539688527757
0.16659652853137383,0.2767329737562317,0.3617179781405798,0.9674272176324383,0.6633972965516975,0.748431085858956,0.19478707292987862,0.19784229856318253
0.16564767304465952,0.278788409041844,0.3617139043388033,0.9661404070109996,0.6642340010364396,0.7443455580246352,0.1938455994976586,0.19598521222903292
0.16490774082265222,0.2809868168064815,0.36162823403936617,0.9645718194475861,0.6647073097179151,0.7401267972681733,0.19285818279341657,0.19405973254643746
0.1643951110023058,0.2838614238551521,0.36157157110159255,0.9625145778165689,0.665053193979154,0.7355974596308146,0.19181440072238093,0.19207069056665127
0.16397336763955478,0.2874937310237945,0.36156945349322106,0.960185796032921,0.665256799425362,0.7310161087776793,0.19078456996260582,0.19006957044555997
0.16354536495137656,0.2915397507994066,0.3617732898645208,0.9579605640474063,0.6652438809529445,0.7267170397669386,0.18981588015630166,0.18809894473344638
0.16310510220018407,0.2958438794962688,0.36222073510073055,0.9560036791396255,0.6653113563955438,0.722986318126742,0.1888932376423281,0.18613264695222131
0.16276051247515574,0.3002169104801999,0.3627469939310527,0.9539309557475695,0.6657765927849025,0.7198830787933493,0.18796204449397377,0.1841322716361012
0.16256125849086994,0.30474523098675366,0.36318098448350056,0.9514151311608259,0.6667689467277843,0.7174164794429551,0.18697008366478426,0.18213466067492673
0.16246110113250176,0.3095447540284285,0.36339926427926417,0.9487453279621642,0.6681174625876634,0.7156347808824,0.1859276395237902,0.18016836632250235
0.16248257453713733,0.31449208524054034,0.3635781454331726,0.946412203719031,0.669511178988663,0.714202386067019,0.18485128421171615,0.17817375241858388
0.16258025662292194,0.31960945486151815,0.36393311789964694,0.944450181763432,0.6709802159079099,0.7126307956817809,0.1837368445816157,0.17613391743678758
0.16269056774762958,0.3249447067407036,0.3643492114280588,0.9423836987253287,0.6726201712433558,0.7107002534837147,0.18258036560414537,0.1740995975284421
0.16306023290466778,0.33042973403776255,0.36474982271442163,0.9398849914495937,0.6741746539334145,0.7083747343810725,0.18138479066144864,0.1720658310806607
0.16399186447799624,0.33607279048223043,0.3650951220705483,0.9372961809539192,0.6755589601472745,0.7057471932539005,0.18016634488005218,0.17000781369724574
0.16533979486778838,0.34194847810129186,0.365266832610467,0.9349980955564503,0.6772404795056074,0.7031274735746839,0.17893388442832628,0.16793527207332018
0.1668038218431344,0.3478270644652289,0.36526564613621354,0.9328265431227648,0.6793851935801211,0.7008587482856415,0.17776275368984268,0.165844152331535
0.16838417280276716,0.3533550785896539,0.3652127384822943,0.9305307411874171,0.681469456485926,0.6994895749186955,0.1766982198317628,0.16388437164246653
0.170134440593281,0.3585758478810094,0.3652976150560453,0.9282185949394055,0.6832598745906422,0.7000118210423646,0.17562970301876926,0.16222594934473417
0.171925204307421,0.3638119235953156,0.36553426418101537,0.9259933361843203,0.6853157370144376,0.7025834826733168,0.17453835005781207,0.16070361366618013
0.1736861157316727,0.3691378169244236,0.36578214282759314,0.9237396762360467,0.6878976478390563,0.7064979091917517,0.1734930664970246,0.15917251546358308
0.1754234580433201,0.3744909952816535,0.36637482139828187,0.9221028766688208,0.6903584605293811,0.7111313496951306,0.1724594297135105,0.15768800133480612
0.1771833798552063,0.37993196434929527,0.36766447144066466,0.9222678689241497,0.6923266483753527,0.7161338453431461,0.1713911298124992,0.15624948011094159
0.1790568042110736,0.38538479661590896,0.3691515432720314,0.9247178146124083,0.6946975788747595,0.721838884335357,0.17031076236346532,0.15481622618502452
0.18093001476965173,0.3906163897479143,0.3704048068831559,0.9289365236348294,0.6987819662052814,0.7286383299350628,0.16930012625325855,0.1533893943748698
0.18275441067749432,0.39569816675678887,0.37189454360963525,0.9339538272441263,0.7044011173050403,0.7360902734834004,0.1683571669189435,0.15197008311401267
0.18463732716832743,0.40097940158451245,0.37413054337681523,0.9392621607789418,0.7104465891588795,0.7437312643771316,0.1673728784774089,0.1505392779790603
0.1866479488126251,0.40641289806159914,0.37691775472200423,0.9448370663372067,0.7162989689979541,0.7519134379024462,0.1663299493449618,0.1490921738484455
0.18889244610747813,0.411652496055144,0.3801025000130856,0.950521172426178,0.7215598405432968,0.7609329886384546,0.16527205043684,0.14766430587402815
0.19129831517072515,0.4168352822657134,0.3836978589886537,0.9557091960316118,0.7262431435807082,0.7707381334953083,0.164174109801776,0.14634313404249125
0.193796047078216,0.4222863336282213,0.38738164886139337,0.9599429836243272,0.7305700343081827,0.7810178290332117,0.16300549772691467,0.145145355101277
0.19638592436182767,0.42789512632512333,0.3908723461656078,0.9633334608369828,0.7343846749038089,0.7910127596323064,0.16178378546189146,0.14397984582428852
0.1989009794615369,0.43350229957529046,0.39420840171961524,0.9661680678063383,0.7375117504127154,0.8001840883763768,0.1605525757558586,0.14276609766566264
0.20132866384085304,0.43892867557814286,0.39762063737747977,0.9686621166475361,0.740165327609903,0.8086055533203386,0.15938032952854916,0.14152075061453973
0.20374397603128613,0.44389606222345307,0.40107570451957103,0.9709015444153277,0.7430186446379007,0.8165155609336167,0.158285674035331,0.14031992564132767
0.20607826231141593,0.4483326924024691,0.4043009680343803,0.972754848943778,0.7465416555409016,0.8241827669212681,0.1571994347467503,0.13916284730010084
0.208366219935669,0.4522907773272447,0.4071829533819263,0.9740966154449648,0.7506283111473959,0.8320248495080792,0.15605543507877373,0.1379952439752214
0.21074805833703888,0.4560346718400593,0.4099878620538266,0.9750280095406696,0.7550562794553705,0.8405147128221805,0.15489740526869036,0.13680532838200643
0.2133578033261424,0.45999797044273893,0.4132177821195397,0.9756461967550614,0.7595457011371282,0.8501776304215641,0.15387416400997672,0.13567545036692932
0.21624320496560662,0.4642542297321361,0.41687786968128693,0.9757903562796136,0.7638622489638608,0.8609666686576177,0.15300089962432512,0.13468432319244475
0.21922903566020094,0.4686595764383481,0.42055811231978946,0.9756414113376132,0.767788631559439,0.8720803334295489,0.15211816080393814,0.13375332863159503
0.22214089964976755,0.473129733193601,0.42399332891840724,0.9760078715116546,0.7711240628658477,0.8831060027869551,0.1511402940970419,0.13279383495403368
0.22492571240331455,0.4774101876369434,0.42743154527476274,0.9769873325709789,0.7739244330780868,0.8943577819057056,0.1500723774797593,0.13181469291066691
0.22760636440385695,0.4812376128619569,0.431156807680123,0.978197854573978,0.7763506954424277,0.9057949241496003,0.14893941305791758,0.13085113141712942
0.2304121165372278,0.4847216040760812,0.4349925827658825,0.9801096164782122,0.7786708311665266,0.9169904892847688,0.14779880900797496,0.12997026319859975
0.23352871630712121,0.48822807765724474,0.43890362104456454,0.9831048284485326,0.7809005840892742,0.9280645139349856,0.1466854282712412,0.12920946085630036
0.23701319203545587,0.49207359712687115,0.4428093305009981,0.9866788711604795,0.7827676051108032,0.9390249604469366,0.14556573294994998,0.12850406768748918
0.2412005487162644,0.4964068650470872,0.44647884955199935,0.9902615779621623,0.7843460283235835,0.9494717116026026,0.1444277065388326,0.12778549728384764
0.24630357940515696,0.5009751797288188,0.4499322713860071,0.9938825432399927,0.7858608217930843,0.9596376415286443,0.14329330219398265,0.12704833005928748
0.25190983814772183,0.5055031642759624,0.45330937181804676,0.9977438731888025,0.7875673544550735,0.9696655441635831,0.14215008580044247,0.12628071394290583
0.2574705395944534,0.5099681419452808,0.45664363689138066,1.0014770390063172,0.7896094234261078,0.9797121992653334,0.14099285804579206,0.12545796939939954
0.26273491469212285,0.5144755153993003,0.45979330401598145,1.0045023280904741,0.7915893766582406,0.9904223160223451,0.13981665908768898,0.12467020381877725
0.26775087400101316,0.5193600743529936,0.4626028914378991,1.0065801432722068,0.7931068447059046,1.001395681372098,0.13861676293579062,0.12403700485592623
0.2727249487936727,0.5245739681646757,0.46509115124745715,1.0078967432771186,0.7942941216767687,1.0116608559259113,0.13747558925593162,0.12356563883539196
0.2777544463775142,0.5298437852129072,0.4673231325383975,1.008724630974093,0.7954051045701326,1.0212988782683348,0.13649197722792109,0.1231960405331407
0.28270506949402635,0.5350684042492762,0.4692877595349664,1.0092915093090191,0.7963417469508367,1.030748912344243,0.13559985582899758,0.12283054096383661
0.28744843309807333,0.5399706212569375,0.47100143970399644,1.0101898515149104,0.7967964809033291,1.0394884996043041,0.13466239141617944,0.12246262892398378
0.29209593977747833,0.544539656002569,0.47241993618998096,1.0115648489979605,0.7966560902966432,1.047058687242857,0.1336423437673538,0.12212619421700752
0.2968211030583642,0.5490730722790356,0.47344773185636907,1.0128127825893072,0.7962942422098463,1.0535899019388664,0.13256434429969596,0.121793449943412
0.30170958978470014,0.553688388384498,0.4740740690366461,1.0139179113558383,0.7960150916944488,1.059047442669954,0.13151218357563615,0.12150467269876557
0.3068632442184405,0.5583307877812541,0.4744896237598342,1.0151461263505543,0.7957150252078745,1.0635462439474908,0.1305526140738701,0.12129166040436441
0.3123324271628298,0.5627472312852609,0.4748636175644806,1.0162970002650922,0.7953551256515112,1.0672707167489066,0.12964242279854996,0.121077780748207
0.3179644276787633,0.5667092659193997,0.4750236606603825,1.0170786009807413,0.7947645058028864,1.0702576007562368,0.1287402269602273,0.12082316218493877
0.32352609648924613,0.5701793258977104,0.47520621848827843,1.017613196433785,0.7939671340317258,1.0725628090373645,0.12783986416497897,0.12053650684980774
0.32906192219425545,0.5737838623356638,0.4758046076873052,1.0182185583376826,0.7931532855899389,1.07403990437388,0.12706915712707734,0.12023954155300659
0.3347682619779781,0.578723709131006,0.47649262615762505,1.0185634152512604,0.792224172899625,1.074656587927038,0.12655024868121292,0.11999317461591535
0.3406455687267651,0.5848825818648294,0.47705176417005907,1.0184448042936647,0.7911857019202763,1.074757208551671,0.12618578015542864,0.11984224675041934
0.3466138791387567,0.5910114603151548,0.47756062807899463,1.0179498401273928,0.7899901399053901,1.0744911284313017,0.12595602012141527,0.1198295579155884
0.3525832450566855,0.596851664624665,0.47802759729064476,1.0170819836272589,0.7885786081512193,1.0738745399155072,0.1259221960034799,0.11998254277237211
0.3584208244414658,0.6028179443684112,0.47844066965725784,1.0161390872573133,0.7869885984690447,1.0728898403166516,0.12599559435235952,0.12022030855852205
0.36399967531212457,0.6087051680389163,0.47864132564307516,1.0149782312895104,0.7850555670985737,1.071346712475184,0.12609125336268942,0.12043196619253155
0.36921867976778555,0.6141968475388364,0.47857842877519924,1.0131620492513043,0.7826558816826672,1.069217425787775,0.1262081133152935,0.12062513185090956
0.37402157725340673,0.6193249277598704,0.4783236664019133,1.010807690016163,0.7798923694833796,1.0665896818405936,0.12636519793677256,0.12089402599584109
0.3784819869443091,0.6239397956561621,0.4777987048456199,1.0080879047612634,0.7769707157858661,1.0635411663058454,0.12669432663862212,0.12126852791630113
0.38269740326380924,0.6281328436836002,0.47702916469459994,1.0052819515487124,0.7740209606830708,1.0602401985081844,0.1272879945770427,0.12169688504990964
0.3866075434661616,0.632453230794113,0.47635402913040026,1.0027506394596275,0.7710271152966637,1.056667506197883,0.128020471480415,0.12218302944976568
0.39012160942600976,0.6368979381953604,0.4759503682389803,1.0001769235301536,0.7679204404993799,1.0526444540595343,0.12872455516226217,0.12271729459818863
0.3933336519170268,0.6410828588710521,0.4756195677219193,0.9975450733713784,0.7645350039311295,1.0481276375342168,0.1293740559231525,0.12324358591229044
0.39650107505005194,0.6448681509320855,0.47529860711470834,0.9954886358562018,0.7607324110312781,1.0430225273304148,0.13005763608849563,0.12374836989662066
0.39964950368997837,0.6481204353196585,0.4751411456233623,0.9943188887331008,0.7565946346284461,1.0373328733701237,0.13079989855621238,0.12421872193563974
0.4026563764860647,0.6511138009720886,0.47515360210472496,0.9943929003083247,0.7522538965449413,1.0312299758108383,0.13151734515239563,0.12463562635778337
0.4056118593949015,0.6545252050566276,0.47524834907273106,0.9956164342232141,0.7477633231797478,1.025071982365526,0.13219030377223898,0.12497425948878121
0.4085420761184554,0.6583666174376804,0.47542171901322056,0.9967415694272549,0.7431337611854051,1.01923495992657,0.1329337192214866,0.12531792723223797
0.41131826256620685,0.6620339648864484,0.4755898964335129,0.9972566772512482,0.7382486869147116,1.01355013264735,0.1338173574807783,0.1257596823711555
0.41389094446360514,0.6652504609608806,0.4755256221759504,0.9977895058116601,0.7332041516690643,1.0077823666287247,0.13488775951911955,0.12624134826838634
0.4162330518392725,0.6680459645907002,0.47519225810952187,0.9991277132075556,0.7284933439115259,1.0018338592271505,0.1362761809014824,0.12690781652260252
0.4185261782667449,0.6706567081661572,0.474862571941396,1.0019102900505046,0.7248283921043863,0.9958786706024688,0.1379072876568153,0.12803790889845154
0.42133854451301217,0.6733823821559706,0.47469718503407166,1.005697369522062,0.7228694106554878,0.990865559985155,0.13966198357522477,0.12956358528502757
0.4248120200179918,0.6759880382016201,0.47459551385820087,1.009378576738416,0.7223168331957524,0.9875139407853872,0.1415933774664116,0.13119874394659062
0.4284264473323197,0.6781353925856612,0.4745749455818142,1.012513685574283,0.7224414806422627,0.9854272347160421,0.14357826482807617,0.13277658564514683
0.4318312280482255,0.6798289163714182,0.47528051318048864,1.0158588556659305,0.7236751337872591,0.9840309834612077,0.14547868566565886,0.1342646480889699
0.43501212767513053,0.6811401840121764,0.477121253251805,1.0199700350775018,0.7267239211253305,0.9834904230548123,0.14741013706915268,0.13565202421676098
0.438062721710309,0.6822516898630074,0.47940420665857436,1.0239942803731052,0.7311115488936077,0.9840028985901935,0.1494696951833247,0.1369551219707987
0.4409522978310815,0.683324818694227,0.48197423330628947,1.0275570708056225,0.7361270624825388,0.9850675093525361,0.1515160855066652,0.13821646144648653
0.44363157594948627,0.6842064252472646,0.48525764982413877,1.0310360613838399,0.7415711852708038,0.9863115641455081,0.15339412765833013,0.13945001147058103
0.4462274553460761,0.6847435183418417,0.48909325185324576,1.0341774687403982,0.7470188782764967,0.9877795515688989,0.1550892664386207,0.14066247471078214
0.44883465742478296,0.6851110136366186,0.49314578652170943,1.036625202694644,0.7519298506194894,0.989333289956934,0.15662118551556437,0.14182685314871382
0.45163069381812465,0.6854295876556502,0.4971612199217074,1.0383334991157929,0.7565299495545567,0.9908070899531978,0.15800887075555284,0.14294411224000841
0.4546581467194577,0.6856475711416724,0.5012710067761144,1.0394531891638912,0.7614099214056651,0.9919422503147893,0.1592906800800277,0.14404865074659318
0.4578238053557985,0.6859763895187716,0.5055473105434438,1.0403764979965622,0.7665996943023924,0.9924247793972177,0.16051677864091907,0.1451533270051477
0.46125901260962876,0.6863908509944695,0.5095508654471459,1.0413116468480104,0.7719136461820563,0.9921689110849642,0.1617084615656949,0.14625706853503276
0.4648685069658682,0.6870740404145151,0.5131960556152236,1.0420031521104935,0.7771874734557821,0.9917552286784865,0.16287944584583117,0.14742570990554457
0.46854762645328485,0.6885217527896454,0.5166754558249373,1.0424542480802748,0.7820434148155688,0.9924412630071782,0.16410973190745468,0.14881576545901243
0.4725839754469073,0.6904519867857197,0.5201132587340532,1.0434638891460675,0.7861740161463642,0.9945663474428803,0.16551590212507808,0.15072382522979574
0.47706510849465356,0.692427381112338,0.5239425400483768,1.0458693163321569,0.7895399506856219,0.997263580027805,0.16720930282690374,0.15328599944856852
0.48170661845709023,0.6941699420304421,0.5284167147488467,1.0493534853613997,0.7924520085198433,1.0001912534561193,0.16954354463973112,0.15666528176075042
0.48632990600778736,0.6954808407140756,0.5333296038018878,1.05291674884783,0.7956692429659912,1.00393826300713,0.17262224448629673,0.16109702529118822
0.49098478716977695,0.6967452975058676,0.53871757280106,1.0561310144224558,0.7998238236879647,1.0087528818748255,0.17590863210832683,0.16605651263481833
0.49551830401891594,0.6986193333535375,0.5446149483655497,1.0589414855416508,0.8047038572265497,1.0139087861074205,0.17910301333287093,0.17115498039335544
0.50002495713881,0.7013019713713273,0.5505058253664579,1.0611757895812892,0.8095510236608067,1.0189783237982877,0.18232664962305076,0.17664221895526233
0.5049160921993052,0.7050630366565798,0.5559970136011783,1.0629169811536752,0.8138271953127376,1.0249164452473376,0.18563533103341653,0.18256289573346907
0.5100967334543935,0.7100392403725956,0.5611005806821474,1.0644990479491432,0.8177536357697666,1.0327026231045822,0.18888844841202135,0.18856484730786865
0.5155559844047887,0.7153706583660696,0.566202857463338,1.0662349314515895,0.8218833146218304,1.042496410878349,0.19202510210283208,0.1943579371992432
0.5213366407262771,0.7202945662764623,0.5715530403512531,1.0681363293301074,0.8261632972091775,1.0538668122382076,0.1951074985378363,0.19993227700149624
0.5273790387433615,0.7247503737792518,0.5771017612269838,1.0696927666992257,0.830088159227235,1.0657113849729376,0.1980414163227762,0.20533210684471825
0.5337194582076493,0.7287608069534747,0.5832763083970933,1.0709845911749079,0.8337965768352351,1.0770887983949318,0.20075024383373524,0.21057316900724696
0.5398507522796978,0.7327425055613717,0.59020398751983,1.0723028647606276,0.8378426239107705,1.0884429563830873,0.2032478334204904,0.21555032777133784
0.545615626507498,0.7371475191074466,0.5974174809519771,1.0734445867419204,0.8418934822733727,1.1007199992606804,0.2056078129846677,0.220230130554349
0.5517398356255916,0.7415921575974622,0.6047369411873097,1.0746235917211857,0.8452764365824167,1.1133063489936663,0.20790742963782394,0.2247012127527266
0.5587567859216157,0.7456826227217557,0.6120905232389978,1.0764923447685197,0.8479303280620898,1.1251066602624868,0.21016045830528265,0.22908867522573292
0.5667947425361151,0.7498916873055862,0.6192155786265621,1.0791795307063947,0.850165087013739,1.1361303270530012,0.21241355005320875,0.23351226313873108
0.575875121649565,0.7545778613471424,0.6263157381166203,1.0819315920502917,0.8520903732369338,1.1466812669060453,0.2146110392908711,0.2379728218751713
0.5858435675737947,0.7590807215776838,0.6337730141827815,1.0841346307867596,0.8535105119591734,1.1566227455459113,0.21669304717598784,0.24237083507610283
0.5966050626126664,0.7628890684480725,0.641404225427875,1.0857970066182023,0.8543457946681693,1.1655036332627677,0.21866258205779907,0.24651756802335706
0.6078673739271152,0.7660227202854933,0.6491142143712035,1.0872347918312946,0.8546007727814317,1.173929751610714,0.22056274586412505,0.25030627580637793
0.6188757817924174,0.7689759883047879,0.6572598415992,1.0890915238624777,0.8550358729940329,1.1827150428122988,0.2224816361238292,0.2538424624849176
0.6294301133792323,0.7729773897401808,0.6659814606438977,1.0921562047185225,0.85640504657278,1.1912470529329362,0.22434972694653357,0.2572540349097722
0.6398274076676963,0.7783652988095054,0.6749915545943624,1.0960123411068856,0.8582652230248863,1.1989602454235009,0.22606713305433418,0.26051637088617696
0.6500644509971982,0.7839376491014332,0.683914533151261,1.099572121625533,0.8603258311231792,1.2059095003091653,0.22758525697176754,0.26351914488381323
0.6602787291101211,0.788724954287141,0.6925851045633633,1.1027246408954354,0.8626430310010094,1.2122082238512932,0.22887786334765922,0.2662239358462753
0.6705014857901418,0.7927500217488649,0.7009991806795768,1.105544727024255,0.8653304681431181,1.2176579682479107,0.22996019037040905,0.2686410817176356
0.6801742349307015,0.796603709738065,0.7090193795517705,1.1077900374633782,0.8683962026666686,1.2221232167772778,0.23087376086065084,0.27080749271248705
0.6891377046074526,0.800550497498316,0.7166483886924389,1.1094165226056913,0.8714263640926528,1.2260904000254274,0.23172531567500643,0.2727921469024469
0.6976280143727854,0.8040877682773657,0.7238891564933904,1.1105497933680197,0.8741521347037895,1.2300186049895971,0.23253678552734242,0.2745675969423086
0.7054168348152923,0.8070025807274518,0.7305977870512198,1.1111700732085261,0.8765172511067363,1.2338121297334181,0.23322221153648415,0.2760543025876774
0.7123800394815418,0.8096935839657454,0.7367106968895989,1.1111452790407135,0.8784348133262749,1.2370920651717554,0.2337864093693763,0.27724331842648814
0.7187941643713193,0.8123751705043154,0.7421342109959361,1.1104366078051,0.8800293944041218,1.2395031500071017,0.2342608462764318,0.27817317686092496
0.7248908285773135,0.814757664629373,0.7467459609261586,1.1093352146732836,0.8816945898332192,1.2407732596530867,0.23462890703648293,0.2789277876955907
0.731139272669391,0.8168250198349484,0.7504965391668513,1.1083539898265442,0.8836463598203168,1.2409908662116762,0.234908230934895,0.27956752565141696
0.7376940172312494,0.8188697450744096,0.7536136407997455,1.1073883691908224,0.8858235649003122,1.2410038120096476,0.2351826359297695,0.2801034510093529
0.7442479273547019,0.8209109075735621,0.7565764299083412,1.1060708794316214,0.8882477363110164,1.2415029456756566,0.2355657320785185,0.28068664867268345
0.7510688360392549,0.8228062865067999,0.7594622974593597,1.104545116568451,0.8907720823379478,1.2422059051790748,0.23615271552048364,0.2815017080367364
0.7582655884856844,0.824493527683046,0.7619575602150892,1.1027146291450682,0.8929953413710038,1.2427956004451624,0.2369274734142893,0.28251102254004895
0.7653468871104437,0.8260469066217441,0.7639831800488583,1.1002066412489482,0.8947145005966078,1.243129293216914,0.2377273208479669,0.2837051761396953
0.7718495817341502,0.8275309143826424,0.7656110979418601,1.0971867349449897,0.8957826577468979,1.2434517946575292,0.23851696554996732,0.2851685868870313
0.7776320755232056,0.828967190729711,0.766803537274267,1.093994311696789,0.8961602121996255,1.2440173460040553,0.23936294808337022,0.28676779385203194
0.7828872319828716,0.8303096215825225,0.7674779818070141,1.0905530331335558,0.8960439593579058,1.244400310040433,0.24016171415881712,0.2882747154112632
0.7875727201491551,0.8315342452733175,0.7676696624648065,1.0867700606609296,0.8957563384424889,1.2443006977218698,0.24082762706841387,0.28957155993794553
0.7915483092723449,0.8326316270639105,0.7674127452436076,1.082690639075105,0.8954053634716367,1.2437128323953124,0.24139924699661017,0.29069294840349547
0.794867754593841,0.833619608875666,0.7667002287785684,1.0785856556434077,0.8946197129915036,1.242584953792291,0.2418600618447047,0.29177914193714705
0.7975697369065702,0.8345019909960517,0.7655793434435758,1.0748479696296738,0.8934324068053343,1.2406474358168895,0.24218101213604404,0.2928841089638516
0.7999058027321841,0.8352089650201847,0.764095661408199,1.0712445916490783,0.8922632029104831,1.237830357703249,0.2423812379213125,0.29401265283560385
0.8019965733997303,0.8356204378719727,0.7622530089752612,1.0673853786594127,0.8910656417606689,1.2345490750425572,0.2425192797716376,0.295142601589861
0.8036367394966312,0.8356351924747043,0.7601088803667069,1.063365405583239,0.8895880455693119,1.2309339035931441,0.24262445051819267,0.29617251396999406
0.8050582496977929,0.8354844050329535,0.7577386202354198,1.0596635562805379,0.8876701753468449,1.2268089504813928,0.24267133326607157,0.2970321973787531
0.8068642835260477,0.83550302672411,0.7550741123111893,1.0566306216848338,0.8854466765857831,1.2222137232314614,0.2426490438268086,0.2976881036470358
0.8092102221956049,0.8355365866808501,0.7520839142546719,1.0541000562900296,0.8830466386454162,1.2170861772232608,0.2425271799176517,0.2981551408986706
0.8115822639203454,0.8351631882299467,0.7488318678860653,1.0519789265814552,0.8802995295910163,1.211501197070477,0.24235698800981895,0.29856809892082725
0.8134755377416523,0.8343206453302509,0.745279004180441,1.0500575951346778,0.8773233733278778,1.205624458158309,0.24218084829475192,0.29896904483824316
0.8148755915466125,0.8332909109077548,0.7415086851579783,1.047801043997277,0.874291459594057,1.1992469904253205,0.24197244547736269,0.2991976506656491
0.8160298296421139,0.8322168328436096,0.7376342899418985,1.0448649776168906,0.8710754194406013,1.1924903141013465,0.24175344065552049,0.2994149619107385
0.8170347373357926,0.8309810279286841,0.7334568172038272,1.0411547266837389,0.8675593260775848,1.1861329441558486,0.2414643324012386,0.3001360780635491
0.817742056858303,0.8295917173081189,0.728819635854225,1.0367610040558939,0.863686067782554,1.1812066746833332,0.2411285041299627,0.3014520706438632
0.8180838059758699,0.8280702849745661,0.7239076629414257,1.0321055380996795,0.8596621117301453,1.1784630717690943,0.2409087732421109,0.30296140457022663
0.8181022849138799,0.8261966188568438,0.7188980449924135,1.0276521567008965,0.8556917842338789,1.1776227268066113,0.24080030670838548,0.3043065511574227
0.8177647222865806,0.8237872560209635,0.7137597460430967,1.0232158567013305,0.8515358935425306,1.1778147999129969,0.24067802693193047,0.3055267765010951
0.8169398252554005,0.8209012317336171,0.7085100047505886,1.018318790072336,0.8469925652649972,1.1789608107896212,0.24058945391782682,0.3068402817021353
0.8155225348385411,0.8176355917169379,0.7030851867840757,1.0128921044849648,0.8420429065830569,1.1814795292437685,0.2406535555803078,0.30816151360568284
0.8135533344863616,0.8140902168916757,0.6973577326107188,1.0072582363330638,0.8367762132433062,1.185556251092292,0.240743288178566,0.3093350839272184
0.8110447374045557,0.8103676037412324,0.6913463231789925,1.001866215168835,0.8315389588158756,1.191019046108681,0.24067693049335456,0.3103729624430945
0.8080092337740297,0.8062985275751691,0.6850958455892959,0.9971787536538921,0.8265421848073528,1.1976753735401797,0.24043458588205713,0.3112466140441017
0.8045863128217543,0.8017682537528874,0.678622723302146,0.9931898175236479,0.8215529424484265,1.20590821357019,0.2400642517825925,0.31194227411086506
0.8008094868002628,0.7968881153231385,0.6719562529323866,0.9894316295227813,0.8163350268872441,1.2158617449622657,0.23962533531466504,0.31259403901441923
0.7965774342326668,0.7916780275777641,0.6651447024993613,0.985857674751796,0.8108900410767177,1.2270838558184982,0.2391346124699993,0.31331684826020995
0.7918271059638637,0.7861707308165432,0.6582410684914406,0.9828444969234154,0.8053735144784889,1.2388333027386698,0.23864161000387235,0.31411360265025523
0.7865588666726567,0.7804312592732628,0.651342934944283,0.9806046441594288,0.8000011464251178,1.2499860157692395,0.2382271343924161,0.3149736336307733
0.7808069949710202,0.7743548963293246,0.6444433506276092,0.9787723753233636,0.7946448258660699,1.2599286798486857,0.2378547435262647,0.31585324540387155
0.7747317798934658,0.7678752309832599,0.6374086346579234,0.9767099535193801,0.7890950760893505,1.268811255514196,0.23744942258113977,0.31669725021809003
0.7684734851614786,0.7611029623820668,0.6302180211587549,0.9740616440079961,0.7833656607469287,1.277279656577935,0.23694613434726827,0.31744620700085086
0.7619324475075435,0.7541977492177345,0.6229454005294248,0.9708888938595378,0.777409745241398,1.2864870040032441,0.23630282033650515,0.31804334953286456
0.7550804671750382,0.7472656386729646,0.6156481594285206,0.9676053417642193,0.7711092034106293,1.2964524703788232,0.23554624449537395,0.3184545828754378
0.7480513329598804,0.740254318532154,0.6083076689753308,0.9643259480936491,0.7645051520812683,1.3061439684069314,0.23476229064205495,0.31866084512231296
0.7408795873615357,0.7330536527607704,0.6008994656321556,0.9609333510087198,0.7579113384328378,1.3158582292040861,0.2340465087397568,0.31867753038483626
0.7335315499301811,0.7256520775905798,0.5934537019623372,0.9575895221949824,0.7516412373703953,1.3267950427852653,0.23338325541959043,0.31849280301077476
0.7260286616761925,0.7180855274164212,0.585945768838611,0.9542153391663005,0.7455798596512879,1.3392918799541955,0.23270402876981186,0.3180754782704426
0.7183848954069065,0.7102949309712592,0.5783187568058245,0.9504142213149926,0.7393562593218675,1.3531619076559387,0.23199680677430318,0.31744275284478585
0.7105736370066905,0.7022373722188167,0.5705183444476063,0.946081358266826,0.7330637259191322,1.3684189788555878,0.2312367449689983,0.31662465597412853
0.7025428467979165,0.6939790330973648,0.5625395400425927,0.9415449087524286,0.7269453384555988,1.3849346003802618,0.2303867576440736,0.3156567768568606
0.6942563304082651,0.6855299257289326,0.554551575825184,0.9373997775543037,0.7207587417525025,1.4022770939572635,0.22943820133223958,0.3146000465374361
0.6857398868143848,0.6768596955952365,0.5468567436993151,0.9338402258553006,0.7142788643019399,1.4199057090435947,0.228382903341585,0.3134259165974139
0.6770050439360049,0.667986322432695,0.5395433374494777,0.9306369784648376,0.7076049383649218,1.437028793774779,0.2272265210959124,0.3120670768446333
0.6680630395824199,0.6589606305368415,0.5324748092077733,0.9277776442385984,0.7008855589078161,1.4528695287607218,0.2259611918502943,0.31053286596155133
0.6589849967975389,0.6498581264367799,0.5256072259644144,0.9250427739011338,0.6942361635719574,1.4672276526386319,0.22461292949789194,0.3088524439778906
0.649785591582534,0.6407176798120178,0.5188381962898194,0.9220618715742769,0.6877336761672673,1.4800668149800442,0.22322675539276787,0.30702710107659853
0.6404388636163367,0.6315430780690581,0.5120496252998756,0.9188284489123164,0.6813713043977266,1.4911798766651523,0.22177891148638815,0.3050314674693349
0.6310471560774579,0.6224716960851271,0.5052823458911827,0.9153632871380422,0.6752627630374313,1.500611060868015,0.2202400457517748,0.30286149811273444
0.6217017221568988,0.6136214673699657,0.49852190832395415,0.9114524797329602,0.6694965223149693,1.508678416851473,0.2185888555230417,0.30054692182691206
0.6123493998062043,0.6048108049848195,0.4918146577729129,0.907520325701483,0.6638693813704001,1.5154534809207727,0.21686524589927902,0.2981163151355226
0.6031599803412159,0.595972950159237,0.48522493193564054,0.9041465409898042,0.6582938106804435,1.520731804181788,0.21514757349185676,0.29571747192612613
0.5943492069322447,0.5873583113108676,0.47862026649710604,0.9007484979458439,0.6527796380033357,1.5246000774195112,0.21342386668600644,0.2936588816953023
0.5857152385831562,0.5792931169312583,0.47196757133566314,0.8969093162301598,0.6472091716144556,1.5273565360021053,0.2116626220727157,0.29198123337022724
0.5770648348714325,0.5718415080641572,0.46531547212406793,0.8929126248042166,0.6414966324034048,1.5290735779385738,0.20987385723053262,0.29045564174599536
0.5684271192927982,0.5646630887930102,0.4586636791877453,0.8888293005988072,0.6355801639292353,1.5300554669721456,0.2081072967047657,0.28920400498755355
0.5598700532182133,0.5575456530296655,0.45205203086949275,0.884459785966518,0.6295144559056617,1.5310017976084582,0.20641716871209134,0.28842957693170035
0.551385021309772,0.550459992314466,0.4454517359856792,0.8796268435085024,0.6235659160464072,1.5320602924540634,0.20474829585320756,0.28787167315434475
0.5428500518556252,0.5433179632159404,0.43881518568821226,0.8743887077625765,0.6178756006265581,1.533131451997532,0.20302113419867063,0.287207183082088
0.5342354392014883,0.5361222245160499,0.4321704205323852,0.8688014737959091,0.6124110379812371,1.5347351961647635,0.20127331400034257,0.2864146362696288
0.5256265067024897,0.5289823465753781,0.42554427046497145,0.8629993674720814,0.6071476355489852,1.5368267746109594,0.19955422209048326,0.2855672222869233
0.5170513767574497,0.5219094809414475,0.41895569557607326,0.8571444189084014,0.6021218488506025,1.5383934473529013,0.1978575837627052,0.28462802785873326
0.5084968013100499,0.514833998410678,0.4124227957435466,0.8514518415920997,0.5973482619187194,1.539296049440624,0.19617068935464563,0.28352840266248996
0.5000169477131857,0.5077427857682912,0.40591602886137135,0.8462677449014501,0.5925731433689477,1.5401709893657558,0.19446800020371824,0.28229643790994885
0.4916234415416939,0.5006099429297413,0.39954751642218955,0.8414814336944572,0.5876139631160018,1.5410854840669583,0.19272510271253607,0.2809725037457677
0.4832805181237264,0.49345753720324714,0.39349791955053925,0.8368729779760579,0.5825837968890896,1.5416692042748326,0.19093874088991952,0.27952175927154405
0.47505420746633664,0.4863802413152573,0.3878193934354484,0.8323588665208259,0.5775908750943806,1.541568233210176,0.18911921410842347,0.2779377438900697
0.46696744184818223,0.479368252037664,0.3824812370983003,0.8278190103859261,0.5725982838483367,1.5409327696941468,0.1872697202322443,0.27628795191809047
0.4589484189155407,0.47233858360965186,0.3772999781615004,0.8232121096029098,0.5675305973650908,1.5403282165888295,0.18542009090605474,0.2746570659830258
0.45096850690462914,0.4654458819896356,0.3721935691660452,0.8185120955837375,0.5623424839023662,1.540108169868547,0.18365903511899886,0.27309264069334743
0.443294462506129,0.45887805628338996,0.3672506047246306,0.813687436526108,0.5570843012913356,1.540135785565908,0.18207800733573623,0.27155318254168165
0.436408477290941,0.4525404119908958,0.36244869639219734,0.8085743721378549,0.5518778321398564,1.5399523155938737,0.180677396536691,0.26992543157616133
0.4303163828543644,0.44634214746149076,0.3576994329210744,0.8031435701127412,0.5467191697307298,1.5391057792521319,0.17932368153464326,0.2684220607460593
0.4246886932138683,0.4401962723881487,0.3529917397617092,0.7975812301067703,0.5415777871473842,1.5372179650413265,0.17802281729027572,0.26753387696331266
0.41931008159533756,0.4340395840265235,0.348321669444418,0.7918583226364972,0.5364311533323854,1.5341687967799256,0.1768740523175671,0.2672015741746337
0.4139275363866563,0.42789855403459637,0.3436386080405689,0.7859672926131769,0.5312242916442244,1.5302323229094261,0.17573816691775349,0.2669600436793005
0.4083993340399749,0.4217115711883754,0.33890752556714054,0.7799746210716367,0.526158738927784,1.525658167462262,0.17456221038366934,0.26659162349681553
0.4027638852222256,0.4154999774754365,0.33414176235567866,0.7737969071625617,0.5215140549567087,1.52030462298278,0.17346272059095436,0.2660420098853468
0.3971382664033366,0.4094246162363039,0.32950788944333814,0.767441470381407,0.5171627732482162,1.5140703223214675,0.1724040062926782,0.2652928636454532
0.39161439898761474,0.40349880459046106,0.32519185578731036,0.7610625747165468,0.5127954765670122,1.507039674448263,0.17129840025298546,0.26440038066349236
0.3861397065415554,0.39762816129743045,0.32127761947519934,0.7552290181697573,0.5083034159907638,1.4993610485934727,0.17017575142322908,0.26351205649971343
0.3806705358890054,0.3918092707208109,0.3178049864502261,0.7502169162169303,0.5038902427677313,1.491464488015764,0.16911142976181684,0.2627288573596432
0.37523867102501035,0.38604550164540075,0.3147915486334338,0.7456677985730438,0.49985765731726367,1.4834072027072314,0.1682042174312826,0.2619466817128698
0.36985442085025194,0.3805138580524712,0.31221357441710956,0.7415793094333218,0.4963802206140155,1.4754580222261557,0.1675952538845298,0.2610793228189351
0.3644874845846754,0.375483717190855,0.3101549183359585,0.7379019489811582,0.49344385113185113,1.4682617747586608,0.16724542242480087,0.2602182372121384
0.35916903508055525,0.3710116873712831,0.30910313274921275,0.734280417670808,0.4908072344691839,1.4612778696527675,0.16699002291891707,0.2594040993265666
0.3539756454007533,0.36697085733290963,0.30919599896074423,0.7307157857304372,0.4882125096523236,1.453882028069425,0.16678508254840252,0.2585286797187243
0.3488734650207418,0.3630522078997608,0.309768577173993,0.7277973859120692,0.4856068736237656,1.4463399858158354,0.16660186258501986,0.2575219411331408
0.3437564808829838,0.35910712176674725,0.3102445338872728,0.7256938455425829,0.4830601756614399,1.4389127578995653,0.1663593645771763,0.25640393405995354
0.3385901607011971,0.35522747390848364,0.3107011539054972,0.7236430156583893,0.48057899916221297,1.4314019468019514,0.16610720032611623,0.25520731699962945
0.33341506596169973,0.3514275380788944,0.31137284508791946,0.7211364530859791,0.47809603268034134,1.423450708471688,0.16593963669775555,0.25394334726476686
0.3282967477855941,0.3477075188818685,0.3121961251243158,0.7183635310723332,0.4755000899271423,1.4153131811112851,0.16583310116962424,0.25265628776198057
0.3232443662359505,0.3441009646462768,0.3130766942921804,0.7155925679562816,0.47276515688238185,1.4075602506145852,0.16591207766686478,0.2514486737736987
0.31819976011412043,0.34054625291274904,0.31400452692899095,0.712699120670674,0.4699065999106324,1.4001626309131603,0.16624865972186115,0.25029816090176393
0.31314740391150825,0.3369375873778012,0.3149699874207953,0.7098985699444379,0.46709969986124766,1.3933660896934825,0.16661737726302764,0.24909640322204507
0.30811257000812003,0.33323399493259437,0.31583678942595206,0.7075305662490678,0.46462573187129097,1.3882275065388365,0.16690950256070308,0.24782673000341462
0.3031127296684343,0.32947660610457546,0.3165281519878025,0.7050905241847697,0.46255953379961734,1.38481351274429,0.16716819772873054,0.24654012007299828
0.2981712470901004,0.3257115019308055,0.31709783327212,0.7023967232630792,0.4608452645222863,1.3821632280886373,0.16737460790152456,0.24526529539439895
0.293276985037217,0.32196271052213155,0.3176508604211048,0.7000310977062222,0.45938905407563746,1.37957074189259,0.16748400423788534,0.24392274313605114
0.28841255871465954,0.31831337365441303,0.3182943985161404,0.6981889346584141,0.45806743282945683,1.3772499958602382,0.1674670672165645,0.2425167026381149
0.2836214835893941,0.31479612237157434,0.3188768019981179,0.6969428682124416,0.45695605942263834,1.3763681496248463,0.1673293031724343,0.24124518297865932
0.278925255427842,0.31138186858483063,0.31924638833382385,0.6966024949064389,0.4563076224288268,1.377585608305293,0.16711621153094824,0.24018379739745352
0.27429085666759445,0.3080627466917168,0.3194722225492886,0.697115413346754,0.4560892584497589,1.3806428195957543,0.16687807315794267,0.23921077771961208
0.2696732729674835,0.3047642815147104,0.3196606228667989,0.6982969564300132,0.45607522433137976,1.3852295606283047,0.1666228923538347,0.23821624800995125
0.26502942991024503,0.3014152143509539,0.3197862903208684,0.6997759438215906,0.4559825300782703,1.39072668721799,0.16630485440179402,0.237135243628903
0.260351580056884,0.29801429153327114,0.3198317718647606,0.7009897735775615,0.45569433628647,1.396541081990674,0.16590025407114586,0.23595250822608385
0.25566577524573686,0.2945871077541571,0.3199275413025515,0.7017081022495161,0.45527290451305125,1.4027803773391443,0.1654132436604211,0.23467360451325303
0.2510170007404646,0.2911715427164426,0.3201047506186992,0.702165719524986,0.45487820860166517,1.4092261923347589,0.1648411886320518,0.23327720249495595
0.24642819329772622,0.2877436452058809,0.3202928301097678,0.7026142075116886,0.4546565587549495,1.415589205249874,0.16422176676580838,0.2318165580316315
0.24186106144538658,0.2843607481958942,0.3207251342142423,0.702913124911371,0.45440675634572225,1.4224552352402506,0.16357100637090027,0.2303560466100911
0.23729232869980085,0.28111107950527714,0.32159789704478003,0.7031355424676189,0.45394305923307793,1.4300632324850646,0.16284409589319282,0.22885695675454992
0.23275321926644657,0.2778916975566916,0.32254346567213615,0.7033447434397199,0.4532284084854033,1.4376515257317204,0.16202498845856975,0.22729566840094378
0.22826688590806457,0.274691022399251,0.3232234656306288,0.7036881911928269,0.4523145152996114,1.4448592896608894,0.1611184814037814,0.22566970583746954
0.2238286804849357,0.2716517361892797,0.3237557563279856,0.7049887785924713,0.4513513253621498,1.4515757548668906,0.16012256201557237,0.22393664765161067
0.2194274244298085,0.2688499912431253,0.3243000197182671,0.7076850449328299,0.4506695225801348,1.4573210264606253,0.15904876327599834,0.22207607716590091
0.21505238928260878,0.26631159956749334,0.32474823479436105,0.7110852563756289,0.45050491744275933,1.46215182011516,0.15790819217366087,0.22011538972061848
0.21071334535051495,0.2639473360029331,0.32507739892324167,0.714426770365784,0.4508017635869035,1.4666915758213441,0.1568051408507561,0.21809425872009877
0.20642628956599923,0.2615847672739216,0.3254394588256058,0.7175350768524617,0.4516199529001295,1.4709686160363626,0.15589950666076258,0.21601726209205604
0.20217304373169756,0.25919267086777953,0.32584600733463454,0.7201899868638559,0.452996213402759,1.4744820956851379,0.15514346918804844,0.21386208894241635
0.19794287292066606,0.2568080691359757,0.3261743714677907,0.7223417806561937,0.4547846175063427,1.4772216885373426,0.1544109102406085,0.21165427507999368
0.19375223024553573,0.2544061947517634,0.3263139705955213,0.7243244842358391,0.4566512885303689,1.479425644544342,0.15370820272112196,0.20945841316735267
0.1896034437569697,0.25200348908587217,0.32628624488520436,0.7261836471928407,0.4582567254232068,1.4812421458640026,0.15306147163213327,0.2072627318729797
0.1855254437442104,0.2496491096007804,0.326165351967983,0.7278359258413634,0.4595973586045909,1.4825191272828082,0.1524488509589388,0.2050492852756311
0.18159932258582548,0.24737665899224115,0.3259621432166821,0.7294759221592846,0.4609307814778292,1.4830180492963647,0.15180927624714383,0.20284772614810276
0.17796267564170773,0.24519814274685303,0.32562690432674035,0.7310758427631499,0.46236299530801633,1.4829126468655516,0.1510977346097318,0.20063960550709575
0.17469335178123635,0.24306478036196724,0.32509215099873784,0.7323082728217917,0.46367437375966075,1.4823162008721213,0.15033141232104447,0.19841396838316488
0.1716314538260678,0.24090980970063203,0.3243403258502748,0.7329874136662876,0.46464157940091066,1.4808962705248496,0.14956023146107425,0.19618041064304237
0.1685837171600192,0.23868276263261784,0.32339495977210275,0.7332770585815997,0.46522514730825654,1.4783022269379547,0.14879851959967227,0.1939280609367864
0.16555246878082328,0.23640229331370902,0.32227206198624686,0.7334880359775141,0.46546124343201933,1.4745809111856183,0.14803991467903077,0.19164653848579935
0.16260677818650657,0.23414647042174047,0.32102054717906214,0.7335032135953791,0.4656321778484817,1.4700857710011668,0.14734518765488,0.1893192558322351
0.1597323993183251,0.2319230867208272,0.3196538987852735,0.7333511433831015,0.4661952621014549,1.4649684349409495,0.14675234906817117,0.1869370764808825
0.1568955784895157,0.22977968073710603,0.3182252411781058,0.7338616124903998,0.46702593591254987,1.45911379082049,0.14618399807424337,0.18451137183671557
0.15413085210600447,0.22780844961277494,0.3168322516857892,0.7351992292391271,0.467824272832572,1.452432498493962,0.1455593877892262,0.18204637521200337
0.15147118614590233,0.22599712840518124,0.31538112178763494,0.7363974098240388,0.4686377090395753,1.4448465842400608,0.14488156605645014,0.17957960365945244
0.14890121089896158,0.22440737627375976,0.3138490352086762,0.7370532136584309,0.46944474519086793,1.4363692535473744,0.14418692941416214,0.17718706131703935
0.14641282392951885,0.22306452921603628,0.312401452059939,0.737423585700139,0.4704120291210514,1.4270541143730726,0.14348356515801192,0.17486783230317432
0.14399151018155487,0.22186555072038405,0.3111163291319312,0.7376409193695128,0.4716052086954835,1.416899766287071,0.14277921756546763,0.17256748212461392
0.1415965767985249,0.2207852884628333,0.3099611033883583,0.7380459530370201,0.47264558790325434,1.4058923080111978,0.142087981279664,0.1702606674013308
0.13919575977140744,0.2197861966256981,0.30884432786801724,0.7390513540277883,0.4734853148336228,1.3941797288886564,0.14138321005936474,0.16792983827866861
0.1367782607091119,0.21877879499647038,0.3076584345747611,0.7403291939981772,0.4742660174769887,1.3821115325175581,0.14067954440299765,0.16558497455508214
0.1343738823092339,0.2176774998662768,0.3063674562923293,0.7411844327560182,0.47476218465234515,1.3698485428725917,0.1400177313359828,0.1632690656639124
0.13202449139482886,0.2164540249609257,0.30495714812273284,0.7413671711520617,0.4748185533536613,1.357310774775183,0.13934310340378936,0.1609764032427209
0.12974333850725775,0.21517503453851286,0.30338056963354587,0.7413677879933119,0.47456115645162855,1.344415298235471,0.13860338117040955,0.15868144668809575
0.12751628867202908,0.21388429160782407,0.30178687344454524,0.7421101727352972,0.47412422472069976,1.3310563886241595,0.13780210754947214,0.15640656919120272
0.12530971107319566,0.21252337943230196,0.3003588628019301,0.74378201063385,0.47375667626340134,1.317260396259459,0.1369360449623979,0.15416646634738077
0.12309810255593413,0.21106991736664343,0.29897036909955416,0.7458131066416628,0.4736163136818115,1.303246841017339,0.1360222169359172,0.1519283598837009
0.1208838169123775,0.20956944623857043,0.2976210155785576,0.7478716479837099,0.47341927570419984,1.289032020619903,0.13508363928550499,0.14965420806894347
0.11869585204868052,0.20803882940653426,0.29665138772667693,0.7500480579543742,0.47293420706743416,1.2746049750422568,0.13410892176737188,0.14734108689587777
0.1166087219965883,0.2065744579629187,0.29615289544254136,0.7524354025436114,0.4721540349653982,1.2601158883312413,0.13309388996072863,0.1450129808628859
0.11469360533240101,0.2052818421502095,0.29591833945294954,0.7550288964336674,0.47113245244099716,1.2454343538639905,0.1320613335872189,0.14273964833616987
0.11293150400134713,0.20414139412995252,0.2960635096345007,0.7577970194185283,0.47024197810020973,1.2307299997884313,0.13109324251712579,0.1405677054970438
0.11125729612871355,0.2031141725084085,0.2967389131849388,0.7604219564229694,0.4698187578209463,1.2163389396754651,0.13026129545112425,0.13843466960737422
0.10965540662052897,0.20231659577411046,0.2981615504016424,0.762506238325385,0.4696022007025184,1.2019538986809748,0.12954032140070754,0.1363074794535107
0.10815766907939166,0.20182637181788277,0.30050484036971725,0.764746629136227,0.46929603896760597,1.1873143789555203,0.12887939226204242,0.13422136443836216
0.10674763150547438,0.20140329505700166,0.3032050081851241,0.7682039346450715,0.468944577807899,1.1725191182269865,0.12824310701820907,0.13216986764421337
0.10541615812779861,0.20095793857095992,0.3059631283348532,0.7723271737985424,0.4685768688997599,1.1576225980777475,0.12762432307480226,0.13016683718800515
0.10420792196684511,0.20059198983014662,0.30901471398370745,0.7762610544846109,0.46818728735594534,1.142476451656072,0.12702956324021059,0.12827896024043098
0.10309199024460183,0.2002354918246089,0.3124242975385216,0.7801370407440392,0.467870763154939,1.1270058601278208,0.12645835771766223,0.12648968336981808
0.10199856956894894,0.1998482623113466,0.3160326249540656,0.7843350058245876,0.46779157593076126,1.1115139826734775,0.12590354843169554,0.12472958967053296
0.10091436541217186,0.19955904374284186,0.31951333609813176,0.788957252017618,0.4678391990290105,1.096257395069589,0.12533821467853665,0.1229723663908283
0.09985339589647167,0.19941734377900763,0.3228686163001689,0.7936465814348295,0.46780749713788405,1.081106882663306,0.12475667365235973,0.12123964314221591
0.09882904753643283,0.19928985547715997,0.3263146275514505,0.7980612539303314,0.4677935513939626,1.0658852559535368,0.12420030682728955,0.11958551571032047
0.09787414762497712,0.19912259669938026,0.32977724056870694,0.8019883065127595,0.4677765457816605,1.0504364660080818,0.12370198713249492,0.11800816556440166
0.09703340176180957,0.1990110605600426,0.33327244883072005,0.8051576420038583,0.46754936511094997,1.0346850100148224,0.12324630124068581,0.1164723493060839
0.09629597496402341,0.19903316468891,0.33698935413762193,0.8074654091285626,0.46709461832902166,1.018846454469256,0.1227917206543128,0.11495768689548361
0.09558454380781967,0.1991964521394199,0.34092810582428223,0.8093212339107095,0.4665964684591902,1.003213999632463,0.12232526430112776,0.11343797755748795
0.09495883904688172,0.19966846476762784,0.3448813679790095,0.8111976093043699,0.4662578611963461,0.987847268896265,0.1218412126379973,0.111914907795409
0.09456951635060222,0.20074288470493132,0.34861068501276116,0.8129647976060462,0.466112306033927,0.972682690924808,0.12132073975096398,0.11041015193003503
0.09434650570243135,0.20256633106830405,0.3520352709356232,0.8148197302479786,0.46616492606991883,0.957960129729698,0.12074587299344522,0.10891768089838041
0.09413570410357068,0.2050309480063583,0.35515169011383096,0.8174454566415423,0.4667814719696185,0.9440088882876372,0.12012621707439318,0.10744508768643764
0.0939033547383932,0.2078189971445573,0.3579302099123821,0.8207725161820973,0.4682510821973507,0.930742057369944,0.11948437446678838,0.10600630208032184
0.09372416380768353,0.21068640918410383,0.3604563772080342,0.8241387397562076,0.4703948618617689,0.9178618932161634,0.11882192898063129,0.1046079299356254
0.09369628355090118,0.2136938265431606,0.36293261212964356,0.8272316216742138,0.4730744690889433,0.9051032754753562,0.11818721716914166,0.10330305270413886
0.09392682669952483,0.21693255094787076,0.3653653798619305,0.829979822929654,0.47607013912296214,0.8924598679103719,0.11763982018984254,0.10211561103295964
0.09451800176821479,0.2202021971466065,0.36761381561006706,0.8322151481020225,0.4789172859802582,0.8803266556542503,0.11718315809214329,0.1009948463245459
0.09538002078218884,0.22335117376590727,0.3696770730889849,0.8339443549281735,0.48166641687242695,0.8690675947690087,0.1168404725663755,0.09989214139103707
0.09636656255209011,0.22652877551723072,0.3717016125590448,0.835522065719068,0.4848406415257863,0.858802658745997,0.11662719931320432,0.09880109005812437
0.0973977178380278,0.22991121144774415,0.3738008232193428,0.8371739772430978,0.48861231508716374,0.8492110606861714,0.11647106091131772,0.09770886733532937
0.098417064752821,0.2335130585075961,0.3759226318015116,0.8387949808818496,0.4926509653768478,0.8397579814039758,0.1162961797362068,0.09659652073586589
0.09946424805532743,0.23734804835882803,0.3780506359038518,0.8402845654906236,0.49641958708529466,0.8305067013148086,0.11607679529992483,0.09547268462324299
0.10056379090639317,0.24140234703486424,0.38016913993135887,0.8414464253340539,0.499665524086424,0.8222797548481383,0.11582173930640613,0.09435900114395761
0.10189956313012757,0.24546193138943154,0.38229656930432276,0.842052986074795,0.5024618442240474,0.8160501498984866,0.11555286601310413,0.09326279024637803
0.10376087740015989,0.24932875978649463,0.3846110030246346,0.8420408759707084,0.5049524196541073,0.8123187816434837,0.11528440735736728,0.09218435095802062
0.106029495253122,0.25294061597374945,0.3870552784537808,0.841564025002446,0.5073019093711839,0.8105059855548629,0.11503666236270953,0.0911640678792798
0.10841808840116984,0.25624491950202355,0.38936064114483643,0.8411177922128118,0.5095409199758243,0.8091795749416176,0.11480228411741474,0.09020039877331212
0.11079210399603355,0.2593320768346648,0.3914506706043589,0.8414300468594109,0.5115183139168632,0.8075708669797789,0.11452743039578107,0.08923832613287969
0.11312982570155973,0.2624091225179096,0.39331933472453445,0.8426747909834057,0.5130429724206329,0.8062285587107337,0.11420743951278836,0.08829876726364481
0.11544394570388285,0.26545346741315057,0.3948741598410056,0.8440949032058809,0.5143804780476047,0.8058911961604722,0.11393818525233129,0.08741508065474864
0.11765971001544585,0.26838336200591534,0.39623425842491267,0.8450930276815266,0.5160524909665464,0.8061142765360738,0.11379795418487593,0.08658569144621012
0.11974582386317038,0.27120763721342583,0.3976274159738249,0.8455595056921275,0.5181498357648947,0.8060307994563297,0.1137344731419438,0.08580904079499736
0.12174602309460487,0.2739415281166309,0.3992113137614175,0.8453966431090858,0.5204380536976874,0.8055271342442288,0.11364417882436466,0.08504347095908399
0.12372228376567372,0.2766464966751664,0.40100287758250047,0.8447389212605746,0.5227394921382091,0.8046822005751073,0.11350826574944317,0.08428255356166123
0.1259211185079761,0.279528452851734,0.4026503697327947,0.843735513028148,0.5250780984964056,0.8032843220100514,0.1133422194643474,0.08356693676692412
0.12862491421839783,0.2829312786400218,0.40394450995624037,0.842235260544136,0.5274098840911268,0.8017533483584435,0.11312745189226561,0.08288865690543942
0.13177568703678885,0.28681568184221234,0.40512004070544255,0.8402478313228207,0.5295991750545637,0.8014003025590516,0.11286628762559375,0.0822333743789973
0.1351169627161572,0.29084274488616035,0.4063815600364947,0.8380637531759977,0.5316433641046241,0.8031906020713004,0.11258773884811649,0.08161409434972627
0.13868403859308273,0.2948084877570048,0.40776422901021264,0.8357872836891144,0.5336805023857918,0.8073904180918522,0.11229951590197611,0.08107665183583292
0.14263749324473765,0.2985913993577043,0.4092079603967003,0.8331505115162336,0.5357289874339618,0.8139712186872058,0.11198225958940565,0.08079184415399894
0.1469634052160224,0.30221583056572654,0.41047469842238626,0.8299242594193675,0.5375857698543973,0.8224287103838136,0.11165090979278607,0.08084257104491126
0.1518553630218074,0.30573865683236273,0.41135696108063535,0.8262776638063781,0.5391036107882132,0.8320714380444384,0.11137325840165545,0.08116740075704411
0.1572840455180633,0.3092411239205619,0.4120110095261261,0.8224464623491125,0.540315831870153,0.8426112637923776,0.1111672977978716,0.08173405032473298
0.16275287078629488,0.3130349750016753,0.41271356783326535,0.8184691199359985,0.5413615770220068,0.8537315893478737,0.11097662377205117,0.08239105904506291
0.16803417808057158,0.31723091800624376,0.41354876707047683,0.8144694884064819,0.542327302525163,0.8650019810641514,0.11078069824688869,0.08298677495027916
0.17311764556911477,0.32178737071988106,0.4144431772775719,0.8105994887438529,0.5430818343101067,0.8759637637999123,0.11059999644926675,0.08361020387896889
0.17796016119999172,0.32695839187161374,0.41530644446361753,0.8066833890537558,0.5436804233060931,0.8861316910124408,0.11040728745143323,0.08436651491048397
0.18260095048592834,0.332652108698295,0.4162794935974652,0.8030612711255302,0.5445705412874844,0.89564410547965,0.11014979145724743,0.08516228590324917
0.1871312167301547,0.3383254913781161,0.4176507965247988,0.8007200636839759,0.545885751115454,0.9055365747762355,0.10985063032976852,0.08596828998972372
0.19166505039517703,0.34379342550743514,0.41946858223590494,0.7995996774008858,0.5473990455315394,0.9164315701207143,0.1095453332742125,0.08683679196491689
0.19660576252971396,0.34916653544971454,0.42141751129200217,0.798865884903595,0.5488797190318151,0.9278805356994322,0.1092411476344277,0.08774417955468118
0.20233205899773757,0.3544437545206768,0.423222564953017,0.7982953300988347,0.5501672968060819,0.9392131791131441,0.10895837664663253,0.08870794477078228
0.20850340488192387,0.3600253122154325,0.424821393309071,0.7982358256805723,0.5512689270104847,0.9499957132860584,0.10870304866027447,0.08971802124088347
0.21481369185609456,0.3664675865149271,0.4261344971830781,0.7986785926339021,0.5521113952393588,0.9602349481403757,0.10847421760628545,0.09071124769646059
0.22169206284540713,0.37361997896884047,0.42709279394281086,0.799033070526062,0.5526048610578531,0.9704661125623882,0.1082776389013282,0.09167402557213461
0.2293211409114435,0.38127757642075233,0.42767734725590023,0.7989684561420224,0.5528977335007466,0.9811008948380792,0.10811878671523201,0.0926268064130682
0.23736006976000393,0.3894645192302451,0.4279038342895383,0.7984495364392153,0.5530185047314363,0.9917638184001518,0.10794268732068027,0.09357579075867102
0.2455693271773756,0.3979158916282269,0.42788788594118865,0.7974029514823716,0.5528207600936228,1.0023230187847896,0.10771683045994809,0.09447342572782119
0.2537129493091371,0.4066321010785748,0.4278406315826954,0.7958793858910436,0.552432193246218,1.012960015901748,0.10746365432240497,0.09538793570779155
0.26178592627591835,0.41573362882961534,0.42783033682067967,0.794295509689899,0.5522760009143731,1.0234204652998096,0.10719127648293356,0.0966118864539918
0.2702716087652642,0.42483390189647213,0.4277952318785927,0.7929028531910838,0.5526297317779305,1.0337219980597152,0.107001083652503,0.09832454183223316
0.27929096071864357,0.4337302963998913,0.4277832304862414,0.7916810793020591,0.5533639096786588,1.0438950044124229,0.1069565475332662,0.10032249031452942
0.2884309838280909,0.44271726523378435,0.427820084051453,0.79099166911556,0.5542005407734697,1.053433801693637,0.10703132355441003,0.10232396705388315
0.2973700561690038,0.45198946060423195,0.42776322890057905,0.7910394760847902,0.5550875634302628,1.0619956996739408,0.10729370015308239,0.10425334093153057
0.30589432968635033,0.4613182713230739,0.42742958544386317,0.7916386403626379,0.5562425679400212,1.0695881410225727,0.10775532945246878,0.10611856853952191
0.314294410443876,0.4705384537785483,0.4269251073529601,0.7924503836878506,0.5578266285212601,1.076359585963295,0.10833356149352232,0.10790726477236534
0.32297542886315095,0.4795121079748326,0.4265986891757947,0.7930434693590631,0.5595788763159042,1.0823124307669674,0.10899602708705965,0.1096076566218794
0.3316025556120546,0.48801396119220797,0.4265966851644111,0.7934669425725158,0.5610490378689926,1.08717563375759,0.10975848404674739,0.11122193985207236
0.34000934078453826,0.49605630816980584,0.42711226398511337,0.7943696168235819,0.5621276050897045,1.0908781904296176,0.11059579314945046,0.1128659591599625
0.34841787988750733,0.5038185018401751,0.428229410898781,0.7958902592220369,0.5629375292065074,1.0935873107973058,0.11146377750284368,0.11477084352426224
0.3566862597106867,0.5115124873118215,0.4294796324601359,0.7978534560697615,0.5634161570353757,1.0954973274125315,0.11245386944782595,0.11695016148095815
0.3645852660269875,0.5190401972521981,0.43068210391732414,0.8010671385501165,0.5638649194385682,1.096681238112156,0.11370689775798312,0.11919599049244262
0.3721901840058504,0.5262210690990171,0.4321118635247901,0.8058883917065257,0.5647727556587937,1.097075850441464,0.11515005287938374,0.12136955294528728
0.37955993921527487,0.533217019432402,0.4337710257417629,0.8112665525101974,0.565797913778852,1.0967351412951736,0.11656641474713199,0.12345183298014055
0.38653717303672874,0.5403836856874615,0.43536720968488973,0.8162027641801407,0.5664596029512687,1.0959788900023693,0.11796915219880175,0.1256921673901323
