0.04485195018370996,0.03975947775782566,0.06576831537975338,0.4105878678612328,0.3262836469680147,0.13489132658773553,0.08870966561469257,0.1493142696296054
0.04489732465810012,0.03970176770613597,0.06538520477248329,0.40945260030363173,0.32612162725433436,0.13563831750194108,0.08904362805802185,0.14932529714688342
0.04492412563889679,0.03964835172239523,0.06498904727103828,0.40817194556366065,0.32599278235982976,0.1362954422916265,0.08949774826659725,0.14935214430141228
0.044939820341353846,0.03959240881777686,0.06462759398927767,0.40674677207004367,0.32613648936956807,0.13698631897072028,0.09025357291767265,0.14941415557313809
0.04497162006784128,0.03952741685813208,0.06430637172363075,0.40521816576129044,0.3265407654398822,0.13779573121272842,0.09124377371176157,0.14944956940357843
0.04501210829847316,0.03946720373600348,0.06398382657677994,0.4036054691274248,0.326886343003968,0.13863751501226929,0.09226331687748524,0.14945282147580713
0.04504081051156471,0.03942499182089941,0.06364695552474862,0.40188714956394117,0.3270617780295485,0.13938910375730945,0.09321633964134574,0.14941862032777986
0.04504483926566159,0.039379981737020314,0.06331007825450345,0.400136315524389,0.32716121231837586,0.1400202616116108,0.09407806883619349,0.149288452970474
0.045018576934929555,0.03930559472027827,0.0629802062239204,0.3984429876907973,0.3274820345679655,0.14059578630358532,0.0948315819379053,0.1490331856400778
0.04496336521315442,0.03920317920008934,0.06263729561900236,0.39677287208413514,0.32854919066965704,0.1412512588964602,0.09548085415120847,0.1486919309365353
0.04488051543783284,0.03908742397610626,0.06227555815241858,0.39526697741346156,0.3303893910143193,0.14204943187287386,0.0960832762041337,0.1482954988311723
0.044777994597477146,0.03897907835953015,0.06194964883796277,0.39429403451799505,0.3324925626009505,0.1428763581473967,0.09670047601965467,0.1478199260443359
0.04466344245572785,0.03889129686513433,0.061725184901963825,0.393978913578464,0.33477838764676593,0.14360295673409482,0.09730447172691781,0.1472490530118289
0.04453080648734942,0.03881658464506022,0.0615979746068476,0.3939991503179392,0.3373771269227623,0.14423288602084958,0.09784176637544573,0.14659425822758965
0.044387686554671436,0.03874775993243179,0.06149036898476506,0.39389219285964894,0.3399985492900267,0.14484328423909004,0.09832811173261194,0.14587319269328475
0.04424136237954624,0.03867794736954482,0.061361504250196076,0.3935299527735009,0.3424719893551463,0.1454678406074382,0.09878531019432639,0.14508274648068858
0.04407874256493541,0.03860057133016997,0.061252544381558485,0.3930977082314104,0.3448750354319394,0.14607859307883883,0.09918075721083834,0.14423338369853056
0.04389400630433022,0.038509349242672415,0.061189473396940045,0.3927660675278094,0.3474156911751626,0.1467290395105194,0.0995033825857732,0.14334185655817966
0.043681607094090094,0.038398284920358704,0.061136928254439275,0.3925309789676877,0.35016575518335835,0.14747700057167673,0.09977609726816426,0.1423908002177618
0.0434429521221886,0.038275033813465496,0.061061072497914176,0.39226144058411694,0.3527724886704982,0.1482105412600273,0.10000749285873153,0.1413837197816677
0.043192784681936,0.03815361641421537,0.06096299235484156,0.3918990360745769,0.355032339040717,0.1488292907330514,0.10019245558147191,0.14041093952691128
0.04295859040016259,0.03804075621131277,0.0608504342596177,0.39142140712133033,0.3569782566800459,0.14935101194008804,0.10032613871425783,0.13969254453776683
0.042766645058342496,0.037936190299790055,0.060737507946763816,0.3909008816168056,0.35877578223680084,0.14981284745503848,0.10045744329601776,0.13929840518010556
0.042595240121420054,0.03785303110024355,0.06067114011982854,0.3904468014878928,0.3606302075134361,0.15021026786304265,0.10067994928166706,0.13900086048007831
0.04241021868872128,0.03781048650300876,0.060662743500378785,0.39000323001508835,0.3625506414363227,0.15050557299890926,0.10098279262401834,0.13864222310408664
0.042205665155334735,0.03780014666673846,0.06064963339196537,0.3894698494586151,0.3645457333642445,0.15071628722696018,0.10125521451466783,0.138225494156724
0.0419759398437866,0.037800564210939844,0.06059191155759328,0.3887374163154976,0.36648996562621367,0.15087262694248638,0.10145147227309358,0.13774691445517281
0.04173573032043219,0.03781795721043984,0.06055174597290943,0.38804929619187106,0.3682499522812291,0.15094337435514896,0.10158137219226485,0.13719626193569195
0.04151915386826425,0.03787831499910991,0.06060864393489609,0.38771178163356546,0.3699322901233399,0.15090543687305677,0.10165435848397139,0.136577200237846
0.041318706617497515,0.03797302625943445,0.060738274624883515,0.3877166484146334,0.37162564669851467,0.1507702601225179,0.10167283394161136,0.1358932998375903
0.041120509263079814,0.03806039095328805,0.06087049265430632,0.3880289553398333,0.373347966207829,0.15069597721449815,0.10163914956874806,0.13516809651118697
0.04093802728797732,0.038140643990402096,0.06097831412225409,0.38849463564135567,0.3752501041843846,0.15093407989939256,0.10157566242239643,0.13442414313193135
0.040777439888431556,0.03823407480048018,0.061069381072991306,0.38914000446225,0.37753636051848355,0.15143064745000245,0.10148372891431115,0.13368971656428574
0.04063795064357265,0.038326648616181846,0.06116439153934192,0.390003431816686,0.3801544058331794,0.15193327418000954,0.10134461611229145,0.1329784837583246
0.04050540546484171,0.03840494139692967,0.061296512194796975,0.39083391374925364,0.3828265420318406,0.15235429412183202,0.10116050855953095,0.13222994986102798
0.04038631650671279,0.03847618411145882,0.06147068876705587,0.3913780139120393,0.38523359890169845,0.15268347523027512,0.10092685335242364,0.13141302873168154
0.0403069578006808,0.03854061434943219,0.061651495733501524,0.39158747852257647,0.38725105287308964,0.15291111877174407,0.10063934327491443,0.13055822472977094
0.04024562156939092,0.0385850940444611,0.0618117265874098,0.3916170524240004,0.3889674324281078,0.15305478932857058,0.10034071195917786,0.12966800936438508
0.04017484002198895,0.03860376127734106,0.061958806752462056,0.39155475590318267,0.39048776745706454,0.15311799735318374,0.10005178886525615,0.1287247230668918
0.040101777906400085,0.03859103378661005,0.06209316571273225,0.39135115382106833,0.39179905168540086,0.15310417842809726,0.09973231532146502,0.12772489683347465
0.04003329081868904,0.038541602204968495,0.062188482753427456,0.39091229405048616,0.3927954425106135,0.1530300651109349,0.09935049759863518,0.12669201081274944
0.03996924606487783,0.038477167142737204,0.06223967651616827,0.3902087079918876,0.3934562323198003,0.15287829126354757,0.09889604165793874,0.12566192861780331
0.03989614052030118,0.03842518662054307,0.06224861501208329,0.38929938062294306,0.3939157143234852,0.15261894848430052,0.09839260069991837,0.1246355228833122
0.039801066604062754,0.03837179768545318,0.06221712587016934,0.38825430418945,0.39426911042211055,0.15225027574825542,0.09787621924418093,0.12358688095648976
0.03969175672277295,0.038297055223089675,0.062160368235980944,0.387113816572012,0.3945340614459888,0.15178406601753064,0.09739475984954396,0.12249123772079652
0.039575621004995086,0.03822870315489951,0.062072809027022016,0.3858163055164811,0.39486124609077816,0.1512316939412131,0.09711431860357225,0.12137843727053253
0.0394463822439684,0.038186587629841645,0.061935813436884715,0.38428961589857774,0.3953746771649704,0.15058406518977188,0.09712672005687335,0.12030378716615726
0.03929804866741195,0.03814286534748326,0.06175166204944308,0.38255855280575224,0.3959855339487988,0.1498258866498992,0.09726544942423197,0.11923992322342795
0.039138279226555155,0.03809096238851844,0.061542639731128806,0.38066709855953546,0.3965619598071067,0.14896269438196835,0.09737110607926396,0.1181472880833037
0.038974411083362574,0.03804465627236121,0.061316715033016174,0.3787377104686297,0.39701129112091493,0.148019943116011,0.097424967373261,0.11702150095161426
0.038813466510750516,0.03799706253225575,0.06106146867798081,0.3768675030575889,0.3972048980682507,0.14702874417635747,0.09742923214254468,0.11584503150524081
0.03867553170524074,0.037948283072324306,0.06077173534735638,0.3751225696590224,0.39711359084988335,0.145998845814267,0.09739273750651911,0.11461453206328777
0.03856642586834949,0.03790510246719233,0.06044929343735487,0.3736128121672454,0.39690361588459017,0.14492623811137215,0.09738414949377809,0.11338034021843596
0.038464943671380106,0.03786063314518877,0.06010924754796338,0.37226929468920167,0.3966538782493949,0.14384724236362798,0.0974557513094102,0.11219060964143449
0.038357479885266416,0.03781497404150395,0.05979280670088432,0.37092562722600375,0.39638640485193083,0.14297044245201995,0.0975973031171637,0.11105792872629741
0.038244398197310146,0.03777490689477178,0.059519308473645366,0.3694560803919066,0.39617577014731364,0.14243498917444394,0.09778557062587943,0.11000096969805268
0.038126051914025766,0.03773354142723083,0.05927377887466567,0.3677873117455395,0.395852558635666,0.14203935909106813,0.09796485434951777,0.10899740452595734
0.03800278407115646,0.0376842880407049,0.05906192548749504,0.3660165072279603,0.3954286604853689,0.14161739505605958,0.09810862778677344,0.10798570820016462
0.03786824159468006,0.0376275370661552,0.05886911749041769,0.3642634717622366,0.395229786213135,0.14115727691720226,0.09822498123420322,0.10696052484482749
0.03771635837675362,0.03756366911063727,0.058661283613895596,0.3624689520272906,0.3952931507879615,0.1407012226511505,0.09830162202363552,0.1059702319847979
0.03754803461580332,0.03748636915826946,0.05843927747775378,0.36059636754638286,0.3954000325207337,0.1402829257189534,0.0983335159752458,0.10502095542614183
0.037370833217381515,0.03738292363413419,0.05819724333490557,0.35868434835792956,0.39534117254977336,0.13988109130226134,0.09832257683051822,0.10409845730885862
0.03719199700176293,0.037254568598709306,0.057922913289121664,0.3567698838525954,0.39506365663841586,0.1395622514876147,0.09827736247353441,0.10321583646170054
0.03699839775875847,0.03710919640051741,0.057617955649763276,0.35490841622135055,0.39459731255628044,0.13932310745423707,0.09818603412229289,0.10235215421679583
0.03679086394297864,0.03694768689047061,0.057283995796587814,0.353032580001671,0.39401765584834575,0.13904007962017473,0.0980439979389966,0.1014806775856402
0.036590259322818,0.03677089726394014,0.05692930243025601,0.3510512072417399,0.39343714555261944,0.13870866230523685,0.0978870243971957,0.10060927259283269
0.036403162406016515,0.0365930341260052,0.05656849089512683,0.3490109127854401,0.39294329661242405,0.138371394025499,0.09774934393823699,0.09974546336530052
0.03624922469001776,0.03643437370547066,0.05621554731312848,0.34696971456034775,0.39293397707219535,0.137988738928516,0.09765030893980463,0.09888306781756069
0.036147211677342694,0.03628754874520528,0.055883842424743556,0.3449429943958716,0.3935552889166324,0.1375229230627121,0.09756159180765725,0.09800948519587425
0.036074907535906836,0.036138814761460344,0.0555794594684825,0.3429187078894425,0.39427778082647036,0.1369713240507114,0.09743602813697619,0.09711935908348397
0.03600434721584685,0.0359950842606941,0.05530819095009295,0.34091876146512856,0.3947954904316952,0.13635826010875163,0.09726196845828224,0.09622095371378644
0.03592883710443903,0.0358629645267045,0.055068859730297154,0.3389373422589711,0.3951502467735135,0.13572710987570172,0.09704168827330162,0.09534224004250773
0.03584866520161212,0.03573539259728306,0.054846937082248734,0.3369220704468468,0.3953621606153299,0.13507926865055828,0.09677740882177123,0.0944965825911054
0.03577079744668386,0.03559892209583181,0.05462850883728975,0.3349766520670775,0.3954572926401739,0.13440940125769626,0.0964980411115795,0.09366998937781855
0.03570858079449668,0.03545407147513727,0.05440694806589821,0.3331601033109345,0.39548742759157546,0.13378597112906188,0.0963114858009934,0.09286242996395618
0.03566139517187497,0.03532140261083908,0.05420266266137911,0.331395032244693,0.39562250976363333,0.13324767787876024,0.09626069139061556,0.09206717090351708
0.03561526103195378,0.03522057207434899,0.054028471032614926,0.3296809059007045,0.39609185651783024,0.1327512257339843,0.09625957579987307,0.09125770162366659
0.03555680531243952,0.03515029363444404,0.05388323358565493,0.32797036360924153,0.3968203152327048,0.13228858977284255,0.09627923743036143,0.09042873518509384
0.03549330585329325,0.0350825636421019,0.053779204203986394,0.32615123981953836,0.3975819720420268,0.13185206115967749,0.09632544035252874,0.08961534894756504
0.03544510100400699,0.03500396483185726,0.053721378524469086,0.32423669528640414,0.39824092986471404,0.13139412512663953,0.09637692871100992,0.08883102303362857
0.03539820074748358,0.03493510326714791,0.05372786239351471,0.3223463862355876,0.3987809575769834,0.13096964170267272,0.09642673715730488,0.08804182203436416
0.03533253580768846,0.03487562228452906,0.053795854894815594,0.3205412580422129,0.3992468178067546,0.13063774055934194,0.09647489060734409,0.08724203377212268
0.03525567097822266,0.03479842784690491,0.053869129813770164,0.3188059798871907,0.3997215152915501,0.13033454525318375,0.09651472853795168,0.08643957642911146
0.03516816717320331,0.03469767828806561,0.053927328991234355,0.3171525635532898,0.4003178689270857,0.1300524150956302,0.09654657385004985,0.08562196880684289
0.03506388524858945,0.03459455235668403,0.053997795192494265,0.315532246215692,0.4008428095268781,0.12980407895972512,0.09657742908298196,0.08478397267460124
0.03495034095146322,0.034502624790970805,0.054086613261319166,0.3138716083311199,0.4011250988344868,0.1295615642176466,0.0965805636566103,0.0839339690280145
0.0348347323644,0.034408125793034476,0.05417284208240234,0.31215394745979386,0.4012686124086732,0.1293649677504008,0.09653043536606247,0.08307998624794259
0.03471726080656561,0.034304572386473796,0.05424313901821643,0.31033659822403636,0.40127924237940193,0.12922585582821783,0.09646283698598467,0.08221633576463928
0.03459812064711449,0.03419914397095074,0.05430481449686007,0.30838553152352405,0.4012095547959871,0.12909506300878262,0.09642539464317602,0.08133758554623616
0.034477499419560596,0.03407865190357999,0.054358183631425486,0.3063218137663649,0.40127705777559525,0.12893223832172776,0.09643689187775356,0.08046529801140921
0.03436894984606741,0.033943867122692366,0.054396869906448805,0.30425930800745776,0.40144898053434064,0.12869881522623164,0.09649519085576452,0.0796334642243744
0.034285424042908144,0.033815598725610824,0.05442147403589383,0.30225344042868807,0.401553470538446,0.12836465725395022,0.09659820146156288,0.0788411292964285
0.03421254329956814,0.033687001415061174,0.054425898270172184,0.3002234548304044,0.4015465556100642,0.12792777862633248,0.09675056719616523,0.07808734170119246
0.03413654347430219,0.03354484172862205,0.054417701236165184,0.29811887148148003,0.4013729100865979,0.1274331807087155,0.09692993830529853,0.07737784000127991
0.03405094752978078,0.03339653223753919,0.05441081122979339,0.29597170778342063,0.4010132032938168,0.12691727904269368,0.09710822424673037,0.07669801276483028
0.033942883207199806,0.0332491693272084,0.054385120241867944,0.293886176383379,0.4004758680443865,0.1263547536644117,0.09725855623757874,0.07605391273272605
0.03381343122887304,0.033096168178053026,0.05432141223450014,0.29200870340696466,0.39994966294279144,0.1257749175679328,0.09734857414709311,0.07544460916950278
0.03367701790960254,0.032931235565905895,0.05422808674774614,0.29046577906328236,0.39971542240526386,0.12532617379936972,0.09738081209695472,0.07484912032983222
0.03353407746202837,0.032755049220196154,0.054113206902318876,0.2892242968313001,0.3997205691446847,0.12505674643474982,0.09737112177638749,0.07424736292066432
0.033371659622741724,0.0325682682834854,0.05397782028056246,0.2882857276252721,0.399961381255404,0.12484544193688332,0.09731464863511585,0.0736201324469324
0.03320413951992831,0.03237821943696933,0.053829634692872746,0.2878918803449435,0.40064802158486484,0.12462307895923232,0.09720679424959987,0.07298251333366285
0.03305864442575288,0.03219860008031883,0.053696093215563345,0.28799271979594027,0.4017203374454759,0.1244705841896776,0.09704320963219347,0.07234894452179715
0.03292098577225572,0.032042502305566704,0.05359674625764691,0.288158808154746,0.402873037515818,0.12444524222404081,0.09681978859024769,0.07170648976210121
0.03277758400889273,0.0319090546536829,0.053523517810031424,0.288153141200931,0.40391430901924147,0.12443457666867501,0.09655271900183436,0.07107621331671254
0.032635513109501905,0.031784029760504616,0.053461971647388334,0.2880299899390182,0.40488141872112127,0.1243376707254877,0.09625084146510104,0.07049162422328349
0.03249485240001666,0.0316538103991724,0.05339160165702127,0.28788149610367436,0.4058368293252879,0.12417173754946474,0.0959092740948658,0.0699446155067937
0.032362362351853476,0.03150537611236979,0.053299487319488255,0.28763535885569846,0.4066530937147838,0.12395999487069477,0.09554344333516493,0.06940733834766105
0.032244501762943835,0.03133966175762359,0.05317997654054454,0.287282687140335,0.40720843749258573,0.12367789400921479,0.0951547567699571,0.0688598306925631
0.03214743463179748,0.031177636112227222,0.053047747157132105,0.28715606278900047,0.4074936052977813,0.12330202100677583,0.09471783906401944,0.0682896937966601
0.03207035106330927,0.03102598125800159,0.05293690930279847,0.28741293371567433,0.4075000048110791,0.12287692946214068,0.09425526584400848,0.06769177552021192
0.03200577111043813,0.030884392931576334,0.05286669824964722,0.2877890063296476,0.40733334745725713,0.12245865626412371,0.09384214408476683,0.06707454634596985
0.031946527805698184,0.030765942281448015,0.052842102244700845,0.2880848448195209,0.40709491790658503,0.12205399488267872,0.09349678151275276,0.0664594992123761
0.031879074525322876,0.03066305223167091,0.052827733000817584,0.28830365025215954,0.40673457767022586,0.12163600065646676,0.09315639340103059,0.06585381903887638
0.031797147212362785,0.03056177400125098,0.05278304424827924,0.2885221044539273,0.40634488982776434,0.12118559866622416,0.09276760456768937,0.06525099756324068
0.03170145395065351,0.030455449369969464,0.05270271075145633,0.2887868134634471,0.40620831601109864,0.12072468993104706,0.09236632345168169,0.06467155040507691
0.031606057251745374,0.030337714331357343,0.05258167310260786,0.28905539593230184,0.40656805492605613,0.12026754792170798,0.09201365392030247,0.06412170717588883
0.03151772228168038,0.03022255031372433,0.052435188916948684,0.2891736472896201,0.4075626542405275,0.11982782219988279,0.0916810801561561,0.06356728246559357
0.03141616958302833,0.03012332868175197,0.05229124924512868,0.2891546721628195,0.4092371105290362,0.11941855235316536,0.09132793422496141,0.06308255612579333
0.03132212945476427,0.03003945243012675,0.05214988247650056,0.28925183253302034,0.41148003167654384,0.11905218191340866,0.09097550891976368,0.06296583523042698
0.031275481942812246,0.02997033568220557,0.05201111328274629,0.2895201613636622,0.4138901354608709,0.11876063010811455,0.09064417103138725,0.06336838915605511
0.031254154711068655,0.029915403772031134,0.0518883346639042,0.28977812644062445,0.4160499867350017,0.11856098493160139,0.09034001001796066,0.0640265691387302
0.031230324206747838,0.029880779266104975,0.05180102812573556,0.28996575549841264,0.4178614000880566,0.1184293873419232,0.09005545256632162,0.06467456492154032
0.03120412221970415,0.02987229906119506,0.05176110837920969,0.2901527834793941,0.4194179999967712,0.11828277584047157,0.0897765495915215,0.06537236706108963
0.03117567710220465,0.029882149255050918,0.05174649684611344,0.29028556830741525,0.4209232495889189,0.11811525846655878,0.0895568122669718,0.06625754250982732
0.03114511379439808,0.02989615185791062,0.05172267806031555,0.29025936372888067,0.4225785057623741,0.1179747071188918,0.08942731138412706,0.06726092054489395
0.031112553851971283,0.029907426948580715,0.051676703222396064,0.29011453390844605,0.4242619905179269,0.11781996992159999,0.089310705128232,0.06826942055266903
0.031078115475871155,0.029909396215187702,0.05160957953869584,0.2899767208615563,0.4256566120032536,0.11759832509528563,0.08917311595138232,0.06922835867547918
0.031041913543973888,0.0299158340617209,0.051549034680511974,0.2898791824854587,0.42667997337797875,0.11729952227516764,0.08911587783992363,0.07009216121804224
0.031017431552875903,0.02996665580966479,0.051521585025051796,0.28978014703324023,0.42750099719678686,0.11695394675562214,0.08918904192486941,0.07085744252252293
0.031017555741128695,0.03005988363268695,0.051519132923225866,0.2896396594498661,0.42823465892616736,0.11658402259975563,0.08931332527533936,0.07156117490016675
0.031027844786456954,0.030160154942431603,0.051533908486460014,0.2893994831370512,0.4287770714314315,0.11616442123137488,0.0895131302649288,0.07223878340306338
0.031041161073981718,0.030247008986874716,0.05155177689061507,0.28897726467149254,0.429055790586325,0.11569770653784597,0.08983846973504774,0.07291080695342375
0.031064046149005733,0.030320944978999276,0.05155252861895667,0.2883545787442781,0.4291488659902715,0.11520643433676024,0.09018997096617233,0.07358352541103665
0.031102748047269153,0.03038913886352757,0.051516848911105584,0.28766108527241163,0.4290174735007877,0.11469883205322018,0.09048592626260304,0.07424957315689401
0.03116322801771616,0.03045177433450033,0.05144635538981959,0.2871813408892439,0.4285578332978657,0.11418947129847909,0.09074183562878059,0.07490859704900157
0.03123779532169947,0.03050903246958428,0.05136268685486894,0.2870134952741417,0.4278916288399322,0.11369229215282962,0.0910059939284537,0.07552683630197599
0.031325765785521535,0.030547719760661386,0.05128655448297618,0.2869101481025053,0.4272223724981739,0.11320724524306966,0.09128447361946078,0.07607203662501162
0.031433157981407535,0.030568605878225137,0.0512444480977287,0.2867081333847336,0.4265508430205384,0.11269415590380592,0.09152289585925451,0.07663376306923274
0.031545652323683324,0.030592502094050993,0.05122824375172733,0.28661251250629677,0.4257440684251204,0.11213468024851166,0.09168934144520821,0.07736453210446201
0.031636174669135445,0.030639312392498102,0.05121677361940308,0.2867792171974301,0.42468167172815213,0.11158486182714936,0.09178677752548141,0.07822954843372397
0.03169890649227179,0.03071468177356805,0.051209843042915835,0.28698942223208834,0.42356299371865236,0.11115847300690568,0.09184485274773765,0.0790683660997746
0.03174168085759225,0.030790552583619703,0.051207261440888066,0.28710062926867963,0.42278603148233557,0.11094416500033558,0.09188527938466871,0.0798211401879566
0.03175863779277422,0.030846771921532085,0.05121552826939573,0.28711034707878946,0.42234337136963207,0.11093961440984579,0.09192215725785881,0.0804775111721819
0.03175088285757446,0.030897511400141558,0.05122747816029177,0.2869694889959897,0.42212730984138197,0.11109559461774438,0.09200909261345858,0.0810343487384702
0.0317395552883561,0.030983075893126783,0.051262997386803094,0.2868050816590919,0.4221482662122518,0.1113381194153392,0.09216388406921502,0.08150212660623232
0.031751565091283664,0.031121927288773582,0.05139457291630363,0.2868924312768346,0.42215522597448984,0.11162976398000168,0.09234331768234545,0.08189094932699681
0.03179925842355513,0.03129824397374915,0.05163127537552865,0.28721382713292876,0.4218880384383913,0.11194136836644572,0.0924926617304235,0.08223061643422377
0.03186766665701704,0.03149685571352136,0.05190144827204186,0.2875180938019204,0.42135218903600985,0.11220490481859675,0.09258633579659248,0.08254967993981599
0.03194245164614774,0.03170991594586933,0.052163260544130306,0.2877053925930764,0.42058661396930414,0.1124222077645269,0.09263335461140562,0.08284204121094904
0.03202326408045463,0.0319299051422206,0.052416822750749485,0.28776056781286674,0.41954854775177797,0.11263519227517835,0.09264907215518234,0.08308183455582842
0.03209639210179138,0.03212956599316149,0.05264887670299121,0.2876491920729255,0.41823077617129495,0.11282378252848105,0.09263483349179673,0.08325774096979799
0.03215541309191019,0.03229621722574394,0.052853447083085515,0.2873585527293721,0.41676038763943446,0.11297548462902705,0.09259195415439878,0.08337236691757491
0.032207569063667826,0.03245119028792416,0.05304490263467445,0.28696358005454625,0.4154663596930713,0.11309175514161655,0.09252172015864767,0.08343495071302746
0.03225979394640485,0.032634958778318596,0.05325705821259304,0.2865828505328221,0.41454285627531634,0.11312721986202189,0.09241870208972255,0.08344769349610069
0.03231872027985622,0.03286615179916611,0.053515553263706314,0.28620274087090264,0.4138543201614127,0.11307198416567345,0.09232453980515448,0.08340606291746265
0.032404057816431284,0.03311574143603984,0.05379138066781837,0.28569655797483273,0.41324411428269403,0.11297684456477704,0.09233922868496491,0.083406065393205
0.03253463429683136,0.03336931536848324,0.054063463068395975,0.2849967237155548,0.4125823906812106,0.11287037080411112,0.09248476809314578,0.08353280910534217
0.03267492796889429,0.033626455644206375,0.05433170053132635,0.2841056431605329,0.41181185339240106,0.11274647226406673,0.09264835597147665,0.08368706062471021
0.032804323252171995,0.033880073076367444,0.05459600117730779,0.2830258014979374,0.4109179171012162,0.11259265386933866,0.09276219052469231,0.08378724419340083
0.03293654073597272,0.03413676185749178,0.05486296687466574,0.2817865019721831,0.4098666915882048,0.1124036783745118,0.09283500990353045,0.08384898459321535
0.03305795822200319,0.03438945474725997,0.05512553811757322,0.2804827879042578,0.408752944359716,0.11218125602168391,0.09284846831177798,0.08387389281651965
0.033162241863479436,0.03461133761697754,0.055383652377082405,0.2792323783865573,0.40760721144810985,0.11192036906878129,0.09280513236574102,0.08385685945284568
0.03328346532581531,0.03481690705137855,0.05567068391518122,0.27808765182307116,0.4064119311031684,0.11161625496147023,0.09276099961050173,0.08383983929885998
0.033440833295592005,0.03504010327893699,0.05601184279920011,0.2770250629191782,0.4051904683035268,0.11133125938302718,0.09272283323396281,0.08387633584554992
0.033605879320088135,0.03525988695987574,0.056371017715825436,0.27612898553984566,0.40381142100390754,0.1112119176487118,0.09264360912742853,0.0839372444021921
0.03375136658128838,0.03545613634136904,0.05674039303990612,0.2754866521699625,0.40228965458364263,0.11129126199318587,0.09251850204057045,0.08396795767610066
0.03387131861832465,0.0356430565795801,0.05714591270750777,0.2749606230309032,0.4007799312505787,0.11142017661099195,0.09237637047851377,0.0839563862832538
0.03396672929212022,0.035820872625213496,0.05755218474425626,0.27438588891648363,0.39924306947310506,0.11148272168099531,0.09225820720618391,0.08389100702296039
0.03403857296717694,0.035976436534670496,0.057911982546210564,0.27377180718913074,0.39764830255950506,0.11146834908817083,0.09216977068307411,0.08377422130681876
0.03409449037227619,0.0360971932086603,0.05821360644264069,0.27322765587448583,0.39601974436224335,0.1114539607627715,0.09206305279476021,0.08363511963614083
0.03414180557401523,0.03618453865880313,0.058472665167266256,0.27276429330557783,0.39448746872405793,0.11156660440824025,0.09191220719489494,0.08346812011990878
0.0341875326668625,0.0362465264417364,0.05870413024958263,0.2723184824602296,0.39359701911316,0.11190094024407839,0.09171261118924354,0.0832679103691565
0.034231696517601155,0.03629757057148969,0.05890229138892274,0.27180297360310757,0.39356205815158546,0.11256067278329182,0.09149331980499809,0.08305618473075327
0.034287694329895674,0.03637152710986973,0.05908177644855919,0.27116111965716394,0.39379719496054505,0.1134975947810789,0.09130888827590099,0.08284033400457802
0.03438838755169409,0.03648070087580602,0.05925659564916965,0.27041240269277167,0.3939294235505383,0.1144781195774691,0.09117135168597383,0.08264080370431806
0.034525050717796615,0.0366234560577602,0.059413411066759465,0.26953544560570797,0.3941369230839185,0.11537905854640364,0.09107880493637227,0.08246376319218435
0.03466924495052089,0.036791509555689834,0.05956622559255712,0.26850323811561766,0.39450313963854383,0.11616957062552993,0.0910293822820233,0.08226829034111813
0.034800445904633374,0.036950169982137925,0.05972175151208097,0.2674304986310277,0.3947400123233931,0.11684700541837377,0.09100119956027823,0.08201525914449913
0.034905719645812745,0.037086320440648954,0.05984629107705153,0.2665272887634217,0.3946657265459918,0.11749585427773623,0.09096661715379505,0.08170072920774224
0.03498609124033115,0.03721417959538033,0.05992769869722236,0.26593420436160964,0.3944610246809323,0.11819027851660904,0.09089251678572648,0.08134104860686858
0.035049251204427846,0.037340670270200146,0.05999451395105578,0.26560491132745234,0.39427886274968565,0.11892762717426135,0.09078737325471715,0.08103881598458824
0.03512263033194629,0.03745904386139329,0.060067364325713996,0.26542797485718433,0.3941184371153187,0.11969195114189207,0.09067938090844817,0.0809389176404605
0.03522577155518396,0.037562852871277135,0.060145917224645525,0.2654638044570014,0.3940591895287356,0.1204612824032459,0.09054202398909739,0.08099922754539403
0.03534391003832157,0.03767268786446757,0.06027665067831317,0.2660842188908007,0.39408340845543677,0.12120123084877603,0.09034996736581398,0.08108569228377387
0.03546290809212388,0.03781492475178622,0.06050397257585649,0.26751059558373996,0.39398686474144523,0.12187224324974995,0.09011245945918747,0.0812238356030884
0.03560267134021631,0.03797464623711097,0.06076997844066597,0.2692786322382046,0.39371472590663226,0.12251678321842932,0.0898718204384891,0.08163191486042778
0.03577553437938965,0.038124194486611994,0.061005870856607046,0.2710174190721216,0.39330831517277737,0.12321561033691851,0.08964847655448031,0.08237803710760071
0.035953148109600715,0.03825718125827814,0.06122610261266812,0.2727532923039876,0.3928875210870568,0.1239188891332648,0.0894151480317966,0.0832060975564476
0.036121762700269115,0.03837419786280469,0.061464571414566634,0.27451144648996517,0.3927007552502646,0.12458563145823985,0.08916580807578266,0.08397133099739779
0.03628829238842979,0.038475825332875455,0.06170019665849148,0.2763427036291745,0.3927781436904781,0.12527695494269264,0.08892145106871813,0.08473590246447185
0.03643929509420209,0.03855594835471255,0.06189275870900929,0.2784293256901622,0.3930947606120937,0.12607135540082876,0.08868878233520586,0.08551916044208652
0.036568613825532725,0.038628795987199205,0.0620640008902443,0.280905291943002,0.39371344984699336,0.127023760130683,0.08843408880194192,0.08629279288101277
0.03669043794753527,0.0387280438329918,0.062294915811671445,0.2835373420004668,0.39450682591756914,0.1280795816824972,0.08813851561367037,0.08703641331657988
0.03679828958081528,0.03884576286427312,0.06259605929005585,0.2860888295169296,0.39531944063101737,0.12909290157601652,0.08781749651524769,0.08774392208788474
0.036879299886202255,0.03895429292443802,0.06290391512838994,0.2884471309253676,0.396089499831688,0.12999772893990025,0.0874858191241239,0.08844294923709395
0.03693455707884289,0.039040556645249615,0.06320452250872909,0.2904913314654906,0.3967713077036708,0.13083133467824845,0.08714426682387333,0.0891599322947886
0.03696512694704167,0.039092066449545486,0.06351796406759752,0.2924069420688138,0.3973212394042408,0.13160269498205152,0.08676685467211538,0.08988002685351527
0.03698542470618811,0.03911696883947962,0.0638500654251,0.29456542885938286,0.3978247263127331,0.1322736543850218,0.08634213346521981,0.09057565867694739
0.03700924905647453,0.03913645389622377,0.06419969507231947,0.29688729390831176,0.39838358997674395,0.13283455626440094,0.08587925507616194,0.09120710351261244
0.0370297377901805,0.03915073822558242,0.06455906779496626,0.29902221212320385,0.398994884378862,0.1333096996629943,0.08538032455534446,0.0917431113005899
0.03704701608037406,0.039153348087293725,0.06489398347264397,0.30088264304080525,0.3996356830437943,0.133729096425029,0.08487413409803132,0.09218062594863206
0.03706120676004025,0.03914478829114536,0.06518512371645782,0.3025723221005807,0.40029739922038127,0.13408807823941724,0.08439491765968547,0.09251681925986693
0.0370657443510403,0.039125552493339565,0.06544079572263801,0.304284244989233,0.4011924355983579,0.13434880821876077,0.08395533760979805,0.09276245566803645
0.03706104396036332,0.039102809158738296,0.06566229397538359,0.30608265186086603,0.4023565905180741,0.13448187453770274,0.08354740992899663,0.09294129115936949
0.03704082562051187,0.03909679053166829,0.06589100542281741,0.30784838697198624,0.40351629294817504,0.1344993824766714,0.08314340913325995,0.09305605600186095
0.037005783204022286,0.03912014753671904,0.06615313961628744,0.30948756205456984,0.4046371869880626,0.13447319641665967,0.08273686865744692,0.09310942367222005
0.03696328069612653,0.039158209158930514,0.0664001893732772,0.3109372348817522,0.4057934224516116,0.1344520420982061,0.08232160540146215,0.0931040107427396
0.03691368331842956,0.03919024178120016,0.06660582788058078,0.3121641252333567,0.4068486281760171,0.13441566342103192,0.08187165551886122,0.09304237682801912
0.036850661316847354,0.03920310456795699,0.06678502809629214,0.3132168456572248,0.40769251458804145,0.13437144305523124,0.08140901862324888,0.09298051222215138
0.03676817296575476,0.039184246243284565,0.06695213783327836,0.3143025272280233,0.40834013608374026,0.13431976446370342,0.08100823818756517,0.09294523049303487
0.03667382979251805,0.03913506349657182,0.06710752116550525,0.31549223491479655,0.4087392227902694,0.1342342578293216,0.08068707094785155,0.09286855096738761
0.036588295908872207,0.03907697946095112,0.06722479385013862,0.31666663831767056,0.4091809998971589,0.1341833352871078,0.08038219368648418,0.0927189168997125
0.03651795702713122,0.0390304948925778,0.06733892858723856,0.3180392192256397,0.41034515305172997,0.1342056588269,0.08003970520727881,0.09252638690491255
0.036448848827789544,0.039008522507425515,0.0675368689545453,0.31989422241601895,0.4122793979809195,0.1342044205332824,0.07965488465211432,0.09230638286598886
0.03637429859532694,0.03901001830906673,0.06780809601454224,0.32200162812433,0.4143600379726363,0.13413384383338894,0.07924331504536031,0.09207368301204268
0.036287928839843095,0.03901390314984873,0.06808230360313439,0.324060937271123,0.41625777671157205,0.1340839274606172,0.0789335892754042,0.09186917943824977
0.0361903365788421,0.03900001159791323,0.0683256676968512,0.3261056815952693,0.41803890385536874,0.13410730941734056,0.07884192777860602,0.09169853022723588
0.03610884753683487,0.03896244360719477,0.06854597964222346,0.328060974464637,0.4198338004793656,0.13412723635826013,0.07883859560208883,0.09160723062279998
0.036089642278612576,0.0389223222006089,0.06874402850374026,0.3297817244088837,0.42158664772124843,0.1340636077377316,0.07882615413731231,0.09176575533447989
0.03613003272137041,0.03890654089145928,0.06890721864134618,0.33136337993083836,0.4231371177309178,0.13390005814020126,0.07885849888505334,0.09217646677877427
0.036180588381638366,0.038900685276155256,0.06908370901637241,0.33305783887858176,0.42457942560285883,0.13366783147724987,0.07894702428267245,0.09265417452398934
0.03622744679988188,0.03887758585717764,0.0693061810299273,0.334932108833545,0.4260706561550247,0.13341025212654414,0.07907583155176184,0.09313533237354733
0.0362774093599782,0.03884470024199714,0.06955236384408318,0.33675592989559405,0.4275604420206315,0.13315541431569253,0.07924973178922914,0.09363938373382848
0.036330292931670845,0.03881585735997467,0.06982098940081931,0.33841607238480736,0.42892706051263846,0.13291681684538884,0.079446539668435,0.09413810329101749
0.036379233568675784,0.03877753746646286,0.07009745117192867,0.3400116497665729,0.430207974420042,0.13270735622906454,0.07961158206888026,0.09457775363060295
0.03641098345908608,0.03871681748466114,0.07036108385570918,0.3416642745495358,0.4314391012790692,0.1325192825528835,0.07971933624699885,0.09493373341268221
0.036426258997053367,0.03863472946132068,0.07059881852830464,0.3432896407098527,0.4327083334812516,0.1323117322673216,0.07981230343339783,0.09521602093044693
0.03646587707467872,0.038545653132005704,0.07081155110440887,0.3450143967484769,0.4343671453154403,0.1320924380849196,0.07992446623321042,0.09546097581891087
0.03654879946839276,0.03847672199689338,0.07104027842835513,0.34727383137835866,0.43633014606468595,0.13186880802094383,0.08000139455646463,0.0956967277451534
0.03663963450482223,0.038427127168520564,0.07130414246800416,0.34987537924007706,0.4381610065339896,0.13162787448913513,0.07999774361556972,0.09592344903263499
0.03672457872588382,0.0383693324261494,0.07158130370454263,0.35225341348200667,0.4397700981171066,0.1313773079946864,0.07991701861384554,0.0961479991889224
0.036797120162385205,0.03829037799674164,0.07183748693846663,0.3543217479859519,0.44119224841581717,0.1310910252401221,0.07977601874974045,0.09637025577454647
0.036844355851326095,0.03820463153625584,0.0720399266973526,0.3562055055393782,0.4424208363073852,0.13075748280223937,0.07959755733597948,0.0965700460226686
0.03687402583855965,0.03813921480070789,0.07218407707822155,0.35788414471364943,0.4434029135918663,0.1304058002436465,0.07937674865274641,0.09670803762811235
0.03689355077456683,0.03810667939896856,0.07229238981757982,0.35932484285551525,0.4441415586268425,0.1300371053943689,0.07910227422508775,0.09675335313986999
0.036896666721750716,0.03810562784001361,0.07239306153511045,0.3605098052887376,0.4448940172716041,0.12963243563493196,0.0787767311565009,0.09670997617101317
0.03688408374618954,0.03813469296699942,0.07247964113526487,0.36143562943308505,0.44595983072316403,0.1291803730772125,0.07842939681000753,0.09659517475665605
0.03688992598413305,0.03820590986724349,0.07255934337671946,0.36207256693685763,0.44723743535490307,0.12868341367553995,0.07810835516259414,0.09645227929891743
0.03693344496566954,0.03831737802427819,0.07265913399334939,0.36243924278298384,0.44851581543068086,0.12816404612671775,0.07779940166716119,0.09630939243466138
0.03698621756666186,0.038420438972059844,0.07274461390602688,0.3626807666302487,0.44988730641618113,0.12765717539339244,0.07744882165879413,0.09612653601372807
0.03703441880196055,0.038488614741644424,0.07279626461749582,0.36283577371926007,0.4513665958289853,0.12717611966954975,0.0770453906270447,0.09587887968573011
0.03707820079109472,0.03853672740355476,0.07283556421743556,0.3628543864676383,0.45275367831601926,0.12668679178767042,0.07660516667829219,0.09557616446691905
0.037097655447103556,0.03857228833112772,0.07286969745263279,0.3627759438732755,0.45385064308729045,0.12616327982359946,0.07616360347629898,0.0952210752664944
0.03708713521007098,0.03858912269063947,0.07287879801840959,0.36257130956513756,0.45456206327629056,0.12561426066341483,0.07574792933776481,0.09481623088111052
0.03707469665184274,0.03858134206324462,0.07283720113995089,0.362179305391079,0.4548705766315803,0.12507480256977627,0.07533736266359764,0.09437087029374859
0.03707380705252938,0.03855670959162105,0.07276052200921536,0.36160176625747914,0.45478002224461145,0.12457844063697741,0.07492539192395704,0.09388718415681968
0.037057221579108145,0.03854272519262222,0.07269047492558431,0.3607938247755835,0.45448166436453563,0.12409703745350847,0.07457933540727914,0.09338067683419762
0.03701895237463321,0.038579055366073936,0.07268032694382245,0.359899992483221,0.45452638369840437,0.1236237217770329,0.07447718358116752,0.09289294477608254
0.036993408451535315,0.03866347855117513,0.07274085677470099,0.35908532771676177,0.4550730630059304,0.12317197101860666,0.07470203922358738,0.09247713058584846
0.037006805293477996,0.03878045138896553,0.07280876099533663,0.3582402013871252,0.4555979146072621,0.12268779654954971,0.07507232585480461,0.09214388232772404
0.03705075179003771,0.03892844646139686,0.07285690976809052,0.35738681101983855,0.45583394217773165,0.12215301696224293,0.0754476470077102,0.09182307417833617
0.03709044816727804,0.03906585705153609,0.07289280106167334,0.3565798272667043,0.4559472460236283,0.12160377743537018,0.07586753727674417,0.0915077893019499
0.03710598293300486,0.03915958069018776,0.07290356098202139,0.3557511530167619,0.4561703723201189,0.12106129446289716,0.07633634042885921,0.09124489374387294
0.03709839106419898,0.03922479727574454,0.07289027125820308,0.35488247302893844,0.4564849612647716,0.12051911220836274,0.07677124684071474,0.0910323646658291
0.0370686848888368,0.03928274051990983,0.0728539898297155,0.3538493313318708,0.45663266825410065,0.11993762532117498,0.0771398798949043,0.09085484660074396
0.03701785409279471,0.03934035650899963,0.07279575085891864,0.3526331284426079,0.45662728871681213,0.1193057313163638,0.07745813560449347,0.09067755971035375
0.036946865748312935,0.03939091788561012,0.07271656476588455,0.35143688636402914,0.45678303431479345,0.11867971838844224,0.07772120997393915,0.09046054938296791
0.03687672222548914,0.03943468240348018,0.0725973604222191,0.3502876363846698,0.45723984377079413,0.11810673702198465,0.07792456104574573,0.09020575136273959
0.0368408843013004,0.03949864699383187,0.07242662004986554,0.34907747066187517,0.4578036721741136,0.11759172179139675,0.07806390189822508,0.08992842566339408
0.03683789577978414,0.039581872082050114,0.07222011996238321,0.3478035187535447,0.4582152582769027,0.1171259649617271,0.07813519370132738,0.08962313304116593
0.03683290226117382,0.039650010558472025,0.072019729233049,0.3465433279876695,0.45838053129752726,0.11670108964832794,0.07815469669715808,0.08929806953039571
0.03680593783376068,0.03969028034013889,0.07183206179022723,0.34539112034739944,0.45833677935298844,0.11630904352666502,0.07814470047041562,0.0889811519458705
0.03676466925904413,0.03969716766601548,0.0716233161368811,0.34432325780362355,0.45820010340581896,0.11594209250213389,0.07813992637030238,0.08867233225929155
0.036716443938997305,0.039665430611480874,0.0714012957393001,0.34328361834853705,0.45799473140587815,0.1156061862560218,0.07817358184220778,0.088351498849055
0.03666161074666525,0.03960346424435088,0.07119353563217162,0.34221180562872483,0.4576302435465916,0.11529361403829876,0.07826402224844252,0.08801948353160959
0.03660719572797707,0.039526013952276035,0.07100630264897316,0.3410367070471879,0.4571072203538429,0.1149902916981219,0.07841537856423422,0.08767040681699245
0.03657329110730697,0.03945388524545767,0.07085225742615579,0.34001132581381094,0.45638625445687486,0.11467605224575199,0.07859142771252133,0.08730534714209379
0.036579096173346475,0.03940697436546442,0.07074347837479227,0.339431013639758,0.45546995781030236,0.11434498752274473,0.07875081094449765,0.08695209532600937
0.03661619373053854,0.03939091668186252,0.07066473150443656,0.3390697251358985,0.4544345629377656,0.11402489213195022,0.07886735480869286,0.08660379333055157
0.03665644429036077,0.039397700976693026,0.07058135798127026,0.3385505636617988,0.4532528152472618,0.11371559841819584,0.07893612247672148,0.08623381850148806
0.03668630006727378,0.03939958425516868,0.07048026744614184,0.33784077528873313,0.45193890155033184,0.11341024962951154,0.07897249564391313,0.08584346984757861
0.03669949800233369,0.03937003386267685,0.07038238527415079,0.33709642020746317,0.45046640402482263,0.11310896912873038,0.07901127671092771,0.085434009597066
0.036703435196485355,0.039323816228299856,0.07028098058647762,0.3364734961327133,0.44879014811013973,0.11279181312768315,0.07906569550693557,0.08499329166913158
0.03671856814880635,0.03930850194828407,0.07014956054187968,0.3363016252200765,0.4469674083939049,0.11244640580283843,0.07908821825683726,0.08451641393841194
0.03673102381461826,0.039329448815570635,0.0699895563750851,0.33666834755414765,0.44503305407906213,0.11206762236745109,0.07904009357638304,0.08399872221787169
0.0367208486513644,0.03933825915213418,0.06982242258320352,0.3371621184651501,0.4430539766086903,0.11165059296167179,0.07892443800446859,0.08343580397763592
0.03669572188928927,0.03930870804458246,0.06967537416712094,0.3375563036979344,0.44105408802216306,0.11119738223004526,0.07876435570586873,0.08283685401176427
0.0366696894364833,0.03924917702409421,0.06955436621025761,0.3379685115397194,0.4390429094130509,0.11073674384259612,0.0785753037603251,0.08220401637455857
0.03664281578360809,0.03918108424330081,0.06943832605302079,0.3385713956415747,0.43710979047273724,0.1102961891114907,0.0783654095539227,0.08154606061813277
0.036601791522633396,0.03911823941235277,0.06932714984247089,0.33928922832667807,0.4352130895931304,0.10983515487747655,0.07816252527073546,0.08092488708520784
0.03654727119326881,0.03905378919317361,0.06924079140533976,0.3398689410271934,0.4334934603599287,0.10936834811188395,0.07799328597368269,0.08044647232531174
0.03647989392092751,0.03898117961846317,0.06916488371770871,0.34021568694205334,0.43217887647776215,0.10901681751446868,0.07794331036898988,0.08014519017081821
0.03639359751539519,0.0388941494095816,0.0690589301875866,0.3403927428233595,0.4310457407331996,0.1088026368037182,0.07808100943891293,0.07995346037131965
0.03630265935460722,0.03879340925638619,0.06893102474234222,0.3405945185560033,0.42986662554075855,0.10863312663245357,0.07832454909682095,0.07983327751640228
0.03622074085546336,0.038699710063277014,0.06881567458677129,0.34096015014157527,0.4286179235421064,0.10844633584721144,0.07858886332814462,0.07976159060534138
0.03615421509785854,0.038632894179042136,0.06870575952321481,0.34134844493026006,0.42729049235782257,0.10825656764281784,0.0788393643970507,0.07970293162112711
0.036102477396211426,0.03859185786038781,0.06858777757024707,0.34159089433510575,0.4259625803145727,0.10811762224921512,0.07906972477584963,0.07965010509531774
0.03603819124884887,0.03854877662354055,0.06844213532683711,0.34164011455770155,0.42480263917669386,0.10800736737437451,0.079287283260783,0.0796095945254991
0.03594190616682606,0.03847703710873276,0.06826348946166276,0.3414576534299001,0.4238713489367943,0.1078845469530093,0.07947232827382113,0.079580903815874
0.035815105663302226,0.038371268005141485,0.06808019047855181,0.3410938708508571,0.42304601114832896,0.10774982561285444,0.079619408127618,0.0795368032012443
0.035659238244101304,0.03824642213519593,0.06789930350252042,0.34062385713453136,0.4223495621348486,0.10759716463479997,0.07973671660634524,0.07945794705332178
0.03548240348470698,0.0381235068981824,0.06770084048900814,0.3400259386472642,0.42187067659916827,0.10745423481056726,0.07982543421065709,0.07936597971281838
0.035299055179604626,0.038002557062710496,0.0674790708772173,0.3392728211415829,0.42157361854926767,0.1073541810203382,0.0799067756060892,0.0792749316408494
0.03511633934877874,0.03787691803485925,0.06725527945306724,0.33835191822070204,0.4213371120012362,0.1073219804414394,0.08000104066806807,0.07915810697390874
0.034934404907699265,0.03774022893200985,0.06703645608757601,0.3372179226617551,0.4209782331794909,0.10734134360208418,0.08009420486636692,0.07901673865480799
0.034753393546135346,0.03757973000611372,0.06680253828474239,0.33583438780869956,0.4204424728204449,0.10734983745052645,0.08015948227980517,0.07887208760496196
0.03456675395122043,0.03740329685016078,0.0665343499635975,0.33420012152815953,0.41979152242100454,0.10738135589756911,0.08019133579020413,0.0787110642228494
0.03436153898561447,0.03723185010459656,0.06622695335943896,0.3323543412825574,0.41913799143422364,0.10748835558291671,0.08019787307911952,0.07852116353934926
0.03413875398859093,0.03707202455339693,0.06588234909190506,0.3303414504449651,0.41850936676199,0.10760727948078688,0.08016681607683655,0.07831050974695057
0.033912749482108685,0.03693015543769735,0.06552254462511962,0.3283177453361877,0.41773133815668706,0.1076773210080033,0.08007977061415433,0.07809357998055283
0.03369056952128818,0.036812285356552336,0.06516860573454887,0.326559773782795,0.4168445790716624,0.10771390870034216,0.07997268355128444,0.07788422831105064
0.03347894836015707,0.03671079924205075,0.06481393327508664,0.32507105709910167,0.4160552492674805,0.10773183292368109,0.07990670279551855,0.07768232753789334
0.033284317412974135,0.036611711177316666,0.06444552963028036,0.3235939514160004,0.4153063892402004,0.1077185155107826,0.07985336190150798,0.07747437688654375
0.03309275434297741,0.03650832666098306,0.06404428931474104,0.3220224029470672,0.41450335994065324,0.1076686410112649,0.07975198949725726,0.07724078216311682
0.03289093886513532,0.03640093221219468,0.06359865475308854,0.32043557855392407,0.41362923277737546,0.10757716025821215,0.07959139881591162,0.07696282542307084
0.032686197305511866,0.036283119816216694,0.06313104325021374,0.3189292774078097,0.4127681727658749,0.10747939939599181,0.07940774807685795,0.07664938878019334
0.032485540439920906,0.0361487699849388,0.06268297701712369,0.31753488427282595,0.4120341045747422,0.10740246953351396,0.07926907622994349,0.07631568857198914
0.03228898448397826,0.03599873108068914,0.062294154992480984,0.31627562605242404,0.411375416623339,0.10729205206982985,0.07917356253670167,0.07595624159062289
0.03210322694360699,0.03584051570003189,0.06196906397779984,0.31536079654614396,0.4107560393140486,0.10712965099155183,0.0790659360816629,0.07556582776517944
0.031927977896420046,0.03568131786357098,0.06165176067916861,0.31484985685347855,0.41010800277871545,0.10698454164477998,0.07892676928496284,0.07515285567463588
0.031756263919566825,0.03551464800643242,0.06130878323644459,0.31438476502631746,0.40939974830914055,0.1069029143672663,0.0787508811764096,0.07471870431646196
0.03159478312492088,0.03535436365256655,0.060975008247100906,0.3138436305268624,0.4086813782088694,0.10684197354273234,0.0785333513838116,0.07425134130090912
0.03143656076126515,0.035220399918229096,0.06067041590723732,0.31337068535795515,0.40788716606507003,0.10673401950701446,0.07826951355865194,0.07374597513953104
0.03128160798276535,0.035105056385356624,0.060360602339943274,0.3129500509520839,0.4069944306386915,0.10656114164172509,0.0779549488422152,0.07321143116225576
0.031156676118871914,0.03499426333698268,0.060059465454088724,0.3129342157411683,0.40602837313090157,0.10633970010864265,0.07759885128500645,0.07266286530608343
0.031053895230606837,0.03488124403525517,0.05981372060046207,0.31361984377314006,0.4049931125166746,0.10607201909389591,0.07722342740349547,0.07210810246979776
0.030938972175672975,0.03478626220031942,0.05959445407938925,0.31479526934236945,0.40387928367836995,0.10576705237844361,0.07684325140477687,0.07154794753949367
0.030805859604725056,0.03473536950566458,0.05936729715699695,0.3163310975839247,0.40261114478308724,0.10546014445838728,0.07646558278820825,0.07098317562959824
0.030662162433094144,0.034726699132997814,0.05915286988906712,0.3181098946663422,0.4011498242067572,0.10515167599135708,0.07609736316127727,0.07042121858245945
0.030508479359062285,0.03473836676369329,0.05898425587818792,0.320286533595609,0.3995653013140861,0.1048085828288861,0.07573853739818959,0.06992935614961365
0.03035876461272674,0.034756105410255,0.058852941080565276,0.32294859948804094,0.3978644597805417,0.10442601491335292,0.07541578751611858,0.06967216599224578
0.03021967623933554,0.034772948168977205,0.05872400161485628,0.32564452635245444,0.39593364926598185,0.10403280083388898,0.07515460120090664,0.06967312818745053
0.030077514828448847,0.03477554580295298,0.05859745874069621,0.3280292563087308,0.3938181572219212,0.10367658453575739,0.0749391833767101,0.06975387460052472
0.029932551170749933,0.03476451484508157,0.058480016434243415,0.33012738243405076,0.3916885145007174,0.10337615999794669,0.07472763736047323,0.06985068655987342
0.02979173294888992,0.03474714414768988,0.05833796283061284,0.3321766563112262,0.38964099543097047,0.10308927703152608,0.07448656936111361,0.07000288817502028
0.029655015968476455,0.034717040028704474,0.058145760773407294,0.33441791678539495,0.38766732201559395,0.10278888032020894,0.07423086693954198,0.07018786761178192
0.02952235399615605,0.03466809894527447,0.05795257676788503,0.3370412356552524,0.38567927324581436,0.10251596286039272,0.07398815673489684,0.0703505342475361
0.02938701293871031,0.03460787268625864,0.057832185488335,0.3400742790995872,0.3837930543763881,0.10231639566824346,0.07375810847441336,0.07047164280788859
0.02924255392833989,0.034536909808508265,0.057781539860608716,0.34324893348146285,0.3821264084528031,0.10218049792604744,0.07352702210517778,0.07057962614799933
0.029116256480293676,0.03446911730442081,0.057750856211206535,0.34644231876345427,0.38052431169120876,0.10207889017761085,0.07328847988458027,0.07070838016138434
0.02902751115440675,0.034424480712984755,0.057705866918322225,0.34965722391391213,0.37891864620309507,0.10203023826410527,0.07304303611380357,0.07085687792716185
0.02896139984317093,0.03440872281129516,0.05767398090349801,0.35265560157760023,0.37729105937734264,0.10203228788995562,0.07279122766914528,0.07101743213517796
0.02891700278177654,0.034440661713351826,0.05771483311766065,0.35536373505096297,0.37573099256980874,0.10204271804901396,0.07252688828677456,0.07119604980607963
0.028893419211288223,0.03450482194815987,0.05783190913873992,0.35795208564882397,0.3747718940852954,0.10208789830104466,0.07225081771798209,0.07138508757007077
0.028889767422344805,0.034566311581722506,0.057988353760171994,0.36043004576135884,0.3747964172011819,0.1022264485034196,0.07198385014795439,0.07157722415017058
0.028905184778568994,0.03461181539594367,0.05814218940515507,0.3627064168827942,0.37552778526843583,0.1024742352424268,0.0717392196422775,0.07178551129590456
0.02891876985811131,0.034635298190585695,0.058280009023423986,0.36476770377602774,0.3764933023414264,0.10277278464434769,0.07151619168940208,0.07204247584584275
0.028910531307017782,0.03464438020120391,0.05842911937314818,0.3667215524820536,0.37748128239573886,0.10305274297863368,0.07134078665764342,0.07233906842193895
0.028874739499691545,0.034646364418970454,0.058615629660699824,0.3687445803609947,0.3784630516245053,0.10331464786282456,0.07122447628059243,0.07261979296150156
0.028819312308199833,0.03464824332637678,0.05881767669606498,0.3707716544486899,0.3793242708713567,0.1035790888434673,0.07110463122476166,0.07287169610113794
0.028751842479710576,0.03465670564000366,0.05898758856676923,0.37262012113917403,0.3800559754347803,0.10391255995168851,0.07094809102632596,0.07311584497895242
0.02867291848076737,0.034664771145251926,0.0591132258015635,0.3743026434307723,0.38085697980288713,0.10437191303415945,0.07077665931328123,0.07333228299405654
0.02860317212602676,0.03466576334507925,0.05920976302690398,0.37591172569292625,0.38189733395010406,0.10491111852212373,0.0705777768141947,0.07349526158499087
0.02855564383275862,0.034659988661428526,0.059278371621683396,0.3774690637554886,0.3831121445862934,0.1054660121678176,0.07033945653937827,0.07361363251049961
0.02850935610879629,0.03464774673326578,0.05930682711599547,0.37898208867474525,0.38433888070634353,0.10602869055302837,0.07007032834673624,0.07368253402200067
0.02847098568554775,0.034642702330350966,0.059330276714723455,0.3804245215913841,0.3857028728658695,0.10669187550954591,0.06976530490706531,0.07370404935833877
0.02845359745871727,0.03465791945303754,0.05941577485804271,0.381757921872489,0.3872369552994863,0.1075174186699819,0.06944629843893611,0.07372033270165557
0.028429552589833804,0.034685816964608644,0.059540484738890544,0.3830191701333697,0.38880522232175857,0.10840386417642875,0.06915434029861715,0.07374496760289305
0.02839247761172962,0.0347191309345706,0.05964909432672422,0.38408315105208113,0.3904247321968294,0.10924073436394086,0.06889522288632662,0.07374413757989877
0.02836971837515151,0.03474422191275321,0.05974219842545789,0.38486380657833874,0.39203820693209857,0.10999594587811995,0.06865439731780278,0.07369889218355734
0.028374046651485296,0.03475473706226385,0.059813695006429905,0.38549972844770103,0.39349057414031,0.11069237605859321,0.06841124333605184,0.07361789117838903
0.02839090923004296,0.034771357505757126,0.05987113998167962,0.3861771130727031,0.39470720134466447,0.1113920805544129,0.06815272496671766,0.07352282443543455
0.02839300131980908,0.03480717379191478,0.05992846043116225,0.38700716588325057,0.3958709931708557,0.11214104323483949,0.0678797594725884,0.07342108093496484
0.0283742768179986,0.0348479452533595,0.059992292381217976,0.3883368066879372,0.3972371883409209,0.1129230285362972,0.06760661011165074,0.07329299118873776
0.028382460093475042,0.034886731240001516,0.06012246482760049,0.3904572813907276,0.3987087547715217,0.11368904478115491,0.06735360644479488,0.07314650972435387
0.028449803703458378,0.034936952496170515,0.06034271299962905,0.392763869972573,0.39995208095847684,0.11439893066122307,0.06710005941068496,0.07299594910506448
0.028540241970631448,0.03499137764753134,0.06060210822285988,0.39481167072501494,0.4008221080862105,0.11502101027554333,0.06681280763482385,0.07282157409018163
0.028625940157144338,0.035029713601808836,0.0608652691101102,0.39681721717320567,0.40141444985345615,0.11556518473757264,0.0665203369412136,0.07261790195959011
0.028700335559199493,0.03503925061714848,0.061131777954420256,0.3988205250315947,0.4017940892100437,0.11610785964868157,0.06626327221149544,0.0723797165365296
0.028770533484385543,0.03502123098217707,0.061394546014455265,0.40068603843224815,0.4019231012241471,0.1166886919807074,0.06601357919566431,0.0721020616404862
0.028843334522142175,0.034990241512702414,0.06162005239442597,0.40235108484008614,0.4018189386399131,0.11724528920856199,0.0657444347922327,0.07180029243602228
0.0288984974035758,0.03495356170254872,0.06182307054622309,0.40399660312529395,0.4017525871420964,0.11776479523337181,0.06547700199117623,0.07146906222709322
0.02892336345358113,0.03491147424501768,0.06204449744936194,0.4057355144858349,0.401896302465799,0.11826837821496909,0.0652181505559995,0.07108991319983766
0.028945969071060236,0.034870940723482825,0.06228331935364209,0.4073414451072649,0.40194663514892,0.11870275629987331,0.06500787320150513,0.07065860781997577
0.028999820432543313,0.03485199060456236,0.06253186381481116,0.4086782183830074,0.40174044581108026,0.11907720346828109,0.06489106376511333,0.07018451496280861
0.029063449860383013,0.034860390202205896,0.06276941051003797,0.4097896701031639,0.4013893703310282,0.11948087999652031,0.06481028561363802,0.06967663767534081
0.029109627189032296,0.03488157098071771,0.06296946420903955,0.41067114697013235,0.4008733000522251,0.11989875405185309,0.06469719140460854,0.06913693442782089
0.029139066241294618,0.034908271114132305,0.06312677512636135,0.4113518496982884,0.4003403083119892,0.12028300355219661,0.06456666656860859,0.06857399526265943
0.029165837887886445,0.03496028283673701,0.06324973478664211,0.4120203667804159,0.4002396039520484,0.12071495017845238,0.06447308222316271,0.06800943127169101
0.029203404106424604,0.035063199802503886,0.06335977512194803,0.4128236733404894,0.40069958956698626,0.12126564966757325,0.06442160937422295,0.0674572300226732
0.029244573582566658,0.03520133858866509,0.06345735132172171,0.4136548470699492,0.40140127356274,0.12188260811250105,0.06438372388814645,0.0669040154830762
0.02928246403133721,0.03534629140363586,0.06352285296543907,0.41433135375695207,0.4021395825149565,0.1224954909671551,0.06434549997582704,0.06633699387183417
0.02931049541225484,0.035477564329647035,0.06356429661187095,0.41477234413460184,0.40297238563479765,0.12307713982583326,0.06429361733848377,0.06583754406644517
0.02932906910165169,0.035582253200454377,0.06358937367607842,0.41506117262334574,0.40396831803046496,0.1236149785500171,0.06423540557761064,0.06559710450177743
0.029345264118462788,0.035668098145080145,0.06357871331681288,0.41532451994858127,0.40494549438642663,0.12409033385567658,0.06417788188753303,0.06563808144480644
0.029365854149942965,0.03574252112760439,0.06352719288886123,0.4154963796415039,0.4057901251493244,0.12446534639237232,0.06409432808609686,0.06578105715449237
0.02940400023484114,0.03581931856215569,0.06345000966856185,0.41564073508599436,0.4065673284135205,0.12473732868311031,0.06395921219552644,0.06593454370162703
0.0294522166698648,0.03591837098319024,0.06334835338199524,0.41589236123249645,0.4072324823110334,0.12498404095763369,0.06379496322285305,0.06609793614238987
0.029489961422294944,0.0360319296878787,0.06321669972715957,0.4161995518826787,0.40778981393173946,0.12525314485199596,0.06366317934392421,0.06627064625808646
0.02951765311280762,0.036132510836202544,0.06306985129088771,0.4165127941555077,0.40825015672140413,0.12551666368950223,0.06360269269892019,0.06642535857964402
0.029542387830098105,0.036207209372078206,0.06293535397189236,0.4167980928835592,0.40855042148500315,0.12574115599484145,0.06359709145988642,0.06656270586015148
0.02955758423941502,0.03625707794201463,0.06281280088460574,0.41710318863185,0.4086772168761148,0.12593478693876767,0.06359719423749087,0.06672342584528343
0.029550270261101803,0.03628983337426633,0.06268173343138267,0.4174536703607652,0.40879173576837774,0.12613882642913313,0.06356932328619166,0.06689297577004603
0.029521431175024586,0.036326245582035184,0.06255602006081683,0.4177603099908183,0.40916183925840915,0.12639274088653663,0.06352809305731622,0.06702400654907766
0.029492088087961714,0.03638617836407271,0.06246229328897813,0.4179043695228338,0.40988972448840727,0.12678103519395229,0.06350086771768733,0.0671180655809788
0.029468977184966317,0.03646186578727283,0.06238588167481327,0.41780585760597455,0.4108187358155512,0.12729749482376837,0.06348706495063586,0.06719672657639342
0.02943847804204401,0.03652580632489523,0.062299362719187686,0.4173951791608237,0.41161831033898466,0.12780901844470127,0.0634794288320518,0.06724052487276928
0.029400941169915606,0.03656507681460034,0.0622099451326778,0.41673309795986724,0.41217963974767147,0.12826852503511663,0.06347101280010496,0.06723087532793819
0.029376766504307813,0.03657402545867386,0.062131213114389384,0.4159448394602067,0.4126395684994115,0.1286912033479146,0.06346185887210454,0.0672035396753217
0.029372082666093653,0.03654727533955854,0.0620494064112636,0.4151235652805227,0.4132360674571616,0.12913173336885742,0.06349212367670294,0.06719942860383885
0.029372675269230007,0.036493089573933796,0.06195805166280679,0.4144119080857492,0.41432366742400983,0.12966245952030725,0.06358012286440168,0.06719747896512153
0.029378314446854167,0.03642608463531872,0.061877709851581066,0.41395288237553285,0.41577300168094605,0.13023214814878828,0.06366308896626724,0.06718422680521029
0.02938877544912648,0.036353568240979565,0.061814665914861046,0.4138362421865661,0.41720590982206707,0.13077169654882326,0.0637077308325035,0.0671869199008168
0.02939046672955521,0.03628253586261599,0.0617749149696599,0.413933560091077,0.4186752099177492,0.13132200932924395,0.06375578651948728,0.06720486272974717
0.02937708180104146,0.036219677541723755,0.06176416911934938,0.41423544430271475,0.4202915632124105,0.13190214528021138,0.06382043318870993,0.06720394550127601
0.029369346604927165,0.03617138470366028,0.06175443446699636,0.4148798046631045,0.4219868452413856,0.13245007472482903,0.06386745767412143,0.06716493082724966
0.029393766909031425,0.03615712887218053,0.06174567646784104,0.4157642189252401,0.4236824438698362,0.1329265525236672,0.0638908944177568,0.06708282599461987
0.029442235823144407,0.03616875873306666,0.06177129090613999,0.4168172277962675,0.4254435678886721,0.13334090964778988,0.06389843178361734,0.0669528968560905
0.029486917672866476,0.03617170839068436,0.06182307339888131,0.4179970583907207,0.4272589835983133,0.13367538773553245,0.06388406746921615,0.06679740498089731
0.02951456198432806,0.03615298029875879,0.061866407015208805,0.4191299115979777,0.42892400038909745,0.13393313511888705,0.06385545306302962,0.06663766921151319
0.029532568411629257,0.036113534573364456,0.06189493112224244,0.42014318968948805,0.4303967448986036,0.13418409693496064,0.06381992140118446,0.06646734223252568
0.029561396260159876,0.03608105342559396,0.06193600556518295,0.4210678545213961,0.43171758050315207,0.1344617555426634,0.06378449333987757,0.06628036278465123
0.0296206053017246,0.0360820093755644,0.06200241720610911,0.4219603518284377,0.4328450317437415,0.13473125296518768,0.0637425126263983,0.06606426313140182
0.029702132164674218,0.03608820463045157,0.06206625705076741,0.42273430043989046,0.4337864139116127,0.13495256795020083,0.0636876185904746,0.06580714545197971
0.02977818447297903,0.03606597575747839,0.062114203318381835,0.42320689813215856,0.43458901976503117,0.13509415089307208,0.06362042539431317,0.06551104046971354
0.029828868844570738,0.03601657942529861,0.06214690039631556,0.4234375859243657,0.43525810514766794,0.13514595805762958,0.0635281604766539,0.06517124234577049
0.02986861065247625,0.0359546158291047,0.06215160748305596,0.4236305462872413,0.43576539663832264,0.13512521266091504,0.06343206030066238,0.06478997787685775
0.02992459086868263,0.035880690917885635,0.06212285042217799,0.4237604886086604,0.43607731972226726,0.13501502973642326,0.06335244217358844,0.06438278903268464
0.02998267787804904,0.03578202394791181,0.062068797159758174,0.42362276139150606,0.4362822947000865,0.1348260882390218,0.06326192289582472,0.06395788146028243
0.03001598023120945,0.035659785374756434,0.061990599160689816,0.4231488980869366,0.43656529201492555,0.13461548077085222,0.06314100571945454,0.06350974941744238
0.030025542826904346,0.035528489455465384,0.06187600925334827,0.42236064937243417,0.4368624742997126,0.134377666229277,0.06298444240906702,0.06302646288886972
0.030025759983927473,0.03540871440926985,0.06172003357137119,0.42129918210249306,0.43693892982219895,0.1341140565284456,0.06278724721233508,0.06251001614157632
0.030017037611033637,0.03531344712483649,0.06154467903537274,0.42017797275431173,0.4367306312474472,0.13385945690021445,0.06255806217518123,0.061982406655571795
0.029993086654076358,0.03523502860528201,0.06141113066002236,0.4192881959832866,0.43637718716935836,0.1336137215996506,0.06229849872198965,0.06145131484988071
0.029954592014451772,0.035166116419161765,0.06137118826887373,0.4186072816948904,0.4360323372967722,0.13338338861156213,0.06201012757898769,0.06089734692613187
0.02990222287125703,0.03509967803234879,0.06141413669768216,0.4181067530103792,0.4356960410876637,0.13322149861303864,0.061721222842981656,0.060315345862852004
0.029843318672618812,0.03502898413049871,0.0614828447190345,0.4179330312084396,0.43532144982478416,0.1331720352968637,0.06145883043763069,0.05972046367040344
0.029784906230410857,0.034960973847246155,0.06152932490351921,0.41786481760228816,0.43482367191045884,0.13317667313327702,0.06123542346593291,0.05912052039024817
0.02974039247648244,0.03490896813027218,0.06157455617998782,0.4175833532047126,0.43422859901891325,0.13322637065341061,0.06106289535773885,0.05850962921146417
0.02972927426256357,0.034879007642313754,0.061651978924204036,0.41699120158068836,0.4337282404531171,0.13340603915317123,0.06093251571543299,0.05787548375764193
0.029736739166900877,0.034856791395417135,0.06173337565003261,0.4160957497852985,0.4333657650199763,0.13369648520486124,0.060802463070003705,0.057219706801054745
0.029741914566172457,0.03482194643927179,0.061791751262918124,0.41501133194265255,0.43298843978119034,0.13401906892062362,0.06065947686061046,0.05656392934052952
0.0297448949573333,0.034781741165878906,0.06184810768029672,0.41377395057524513,0.4324033816679585,0.1343319665568674,0.06051762908474464,0.05592215641755233
0.029739086895843526,0.03474313328468988,0.061922536102890995,0.41243156325312,0.43161349686940637,0.13464866886058355,0.06038369316939264,0.05530108499136362
0.02973156385700218,0.03469271874406854,0.061980749561178536,0.4111304341753666,0.43071536638748936,0.13497539069318912,0.06026414055491011,0.05470710101000238
0.029735779538723608,0.034631059290048824,0.0619966526799343,0.4098165389343192,0.42992182584780775,0.13531138121371214,0.060131717799763444,0.05413291485219439
0.02973784784110818,0.03455870311349372,0.06198544066580325,0.4083579816996255,0.42968374115061075,0.13569602898651145,0.05997374013037991,0.05357153456327011
0.029731174130408128,0.034462813001620074,0.061941616713110915,0.4067825149560612,0.42994377431198366,0.1360800465143952,0.05980484249502932,0.053009573715809735
0.02972283069955876,0.034344504228518924,0.06185326841774942,0.40520371544000106,0.43017858135483583,0.1363828589913302,0.05961229058688605,0.052440914121950906
0.02970621220936429,0.03421155120050152,0.061735787846888934,0.4037569712945818,0.43028874251014243,0.13660101699000865,0.05938392632197245,0.051873081843284166
0.029701752170007124,0.03406471866071238,0.061603926310402714,0.402504800159512,0.43042665906753497,0.13675804652762868,0.05912821239892138,0.05130658913356807
0.02974235629652245,0.03392480938158829,0.06148517987266486,0.4014466414525942,0.4307514546291228,0.13690994005352813,0.05885327016294624,0.050748610646772684
0.029819341111102012,0.033805029485446225,0.061405837058390284,0.40057508569170663,0.43131486813835873,0.1370902038871103,0.05856020064502006,0.05019931507870034
0.02991767941058021,0.0336912479548652,0.06134420426896127,0.39979594782645766,0.4319187794806675,0.13727068730929767,0.05825676048423679,0.049752458769478466
0.030043034265800798,0.03357662801759419,0.06127951353190025,0.39904579033547116,0.43250067214394117,0.13742446271576872,0.057950379256866656,0.049638029891863104
0.03020079656860817,0.03344794485765197,0.061198588280858064,0.3983976235630167,0.4331344866943732,0.13751911250762613,0.05766153842481208,0.049895180478789256
0.030382719746894136,0.033299247892227817,0.06110889809043741,0.39784095517695545,0.4337504953486815,0.13755042873422513,0.05741649842095386,0.05032030807430259
0.030574206314327106,0.03314492231344945,0.061024282351125315,0.39726537115530036,0.43413492663595943,0.13756793508466086,0.05719353453038738,0.05078535540700253
0.030761283904821593,0.03299873361994911,0.060917858420450804,0.39661207560437517,0.43425735718843245,0.13757221478411483,0.05695847289307799,0.0512814527842035
0.030937277550683442,0.03286715530260903,0.06077061888531258,0.3959185060674309,0.4344031785158402,0.13753709466585445,0.056718752123779526,0.05181345788890744
0.031095813054615243,0.03273630757037691,0.060591165546343216,0.39524056993412676,0.4346848945803759,0.13747769271562693,0.056521607805360766,0.052345866915583156
0.03123749602736636,0.03259959904570194,0.06040781536435134,0.3945180687509947,0.43488906333900523,0.1374084933896597,0.056405495776929486,0.052878148304321276
0.03137629394040289,0.032464102354579374,0.06023428660299997,0.3936332895054422,0.4348851385177317,0.13732330329927148,0.05636032081768913,0.053469967305382074
0.031512198167283866,0.032316523740298614,0.06004357617382436,0.3924938490911809,0.43468885284178893,0.1371827838650212,0.056349614106229934,0.05410479336124973
0.03163183134182132,0.032144158808267015,0.059843300801835746,0.39108517038677804,0.4343154410621452,0.13694935943445294,0.05633845834514858,0.05473334298037141
0.03172909909178754,0.031948251088071186,0.05966081331395604,0.3894871730293244,0.43404708505325007,0.1366540364901143,0.05632019786452133,0.05535528208905932
0.031804879430501115,0.031743384707423404,0.05946877307758581,0.387816602142258,0.43411348695322116,0.1363399057541725,0.05630853094695785,0.05595692560497618
0.031860032960774436,0.031543518670479324,0.05924772276021432,0.3860849102881058,0.4342125392790522,0.13601477377143134,0.05629649636996829,0.056505144880814935
0.031902088754798046,0.03133525673030207,0.059005822397428444,0.3842161939476435,0.43407528936877865,0.13565937464738043,0.05627074982100605,0.05698836035861246
0.03193826134399447,0.031112478851448945,0.05874421159491257,0.38223158373595917,0.43367202282997586,0.13522187916272296,0.056245283936900925,0.05742898821316629
0.03196877146848889,0.03088271687521965,0.058484057326884435,0.38017814771401404,0.4330681767285789,0.1347330211140188,0.056233483014966154,0.057841825656218676
0.03199383574260061,0.030646496125337395,0.05824560532249178,0.3780341154433657,0.43231985216884256,0.13429579380289478,0.05622807866507751,0.0582076239262364
0.03201366662500809,0.030411011286566494,0.05801477078305193,0.37573863428881554,0.4316279427832079,0.13394849138725803,0.056208740270851244,0.058521388063704216
0.032041844302512265,0.030189829632792417,0.05778475958341856,0.373280443940214,0.43135839244795393,0.133667483497649,0.05616940607046649,0.05881850613218777
0.03210472266691511,0.029989229091100387,0.05754907205126343,0.3707492198166107,0.4313259583715868,0.13343010265045246,0.056110982982804876,0.05913284443083225
0.03220073304889251,0.029795137040760145,0.057288124537968714,0.3681773232493267,0.43107240873857966,0.13325474001329726,0.05601429908205578,0.059443293295739226
0.03230159914429338,0.02959408612186709,0.05700326667762075,0.36560243448599516,0.43047387812118554,0.13310544003349858,0.05587442443048218,0.05971629225810368
0.032400326607740074,0.029386572843098546,0.05670918444637473,0.36317426043845613,0.4296328533716655,0.13291435472194307,0.05570005693352005,0.05994651923578047
0.03251028496953761,0.029166392421541374,0.05641324857325197,0.3608285960843717,0.4287813208359859,0.13267011248791116,0.05549286386410966,0.060135610672514855
0.03263088001835165,0.028927621940654034,0.056115825317917166,0.35841702945389603,0.42798073283153737,0.13234851531953545,0.05526784364092462,0.0602784856578186
0.03274816118775535,0.028691357636167952,0.055817266459709136,0.3559714964479647,0.42698895406371246,0.1319398633511234,0.05506610393406391,0.060363642743783454
0.03284878735098853,0.02848446251356169,0.05554465340386167,0.3535158919888949,0.4257483909378446,0.13148844991649794,0.05490019973298414,0.06040019387852595
0.03292669917110189,0.02829917408606216,0.05531717969414056,0.35102628065786057,0.4244515731539333,0.13100325503678178,0.054721932249260294,0.06040358791848716
0.032989494465191525,0.028121360382002143,0.055099673581147035,0.3484731140586598,0.4231623709147285,0.13043941347506557,0.05449858108085926,0.060368576518229945
0.03305114142534227,0.02794418229102304,0.05488522594390277,0.34584156112660047,0.4218148383777131,0.12978751537176642,0.05423232103026888,0.060296862438261246
0.033111630437718524,0.027754411337569614,0.054693968770242095,0.3431576267024077,0.4206133899442113,0.12929939700982676,0.05393864572513433,0.060196795831616974
0.03315758151590157,0.02755946392703953,0.0545050210720412,0.3405197816186182,0.4199339366442286,0.1292692803074799,0.05363240196468488,0.06006301944864725
0.033189582062228426,0.02738649703509208,0.05432515085907934,0.33798874326037376,0.4198413678610762,0.12952351432687018,0.05331443158659163,0.05993724306972847
0.03322826528347323,0.027248094365989288,0.05418756708116016,0.3354687103980748,0.4202768393498696,0.1297553148019497,0.05298555116665667,0.05995295955606334
0.033286675337260783,0.027129515596338694,0.05405713518291801,0.3329282079335457,0.4211367525520596,0.12989857328205923,0.05267329614482873,0.060144120699532594
0.03335052666850478,0.027003269916009646,0.05388686861461755,0.33043075168078234,0.42229485733359756,0.12996368512399728,0.05245747695446872,0.06038925654601106
0.03340614926661574,0.02686312642875725,0.05368534878021982,0.327916708557042,0.42362341608801146,0.129940611523733,0.05235416907098136,0.06063898321131118
0.03345384702201305,0.026723196290059988,0.05347418624874349,0.32528893720281266,0.42491984620340395,0.12983320697245862,0.0522783514540504,0.060919603916742886
0.03350060422423064,0.026596977230484646,0.053287433691027716,0.32270200776563635,0.42616423438931184,0.12966529773793745,0.05219547290410683,0.06123619115366281
0.03355310255930116,0.026483995273390286,0.05315764040775981,0.3204040232246303,0.427350954865116,0.12943967523690997,0.05213935004801621,0.06158687630406606
0.03361772780905016,0.026397156168130112,0.05307577051127247,0.31835121588364573,0.4283743926882613,0.1291590652998842,0.05212224627301779,0.061989896896291065
0.03369389059079515,0.026355465542528038,0.05302644855923874,0.3163543923355651,0.42916710996300894,0.1288461862520916,0.05210905269518042,0.062435903579635625
0.033760958133072484,0.026330257842706435,0.05299493584656355,0.3142726424992619,0.4296447642801669,0.12854285818007544,0.05209292617512407,0.06285573820417381
0.03380588902382798,0.02629409730115681,0.05297380291854878,0.31211166675563307,0.429847329789352,0.12830244651060185,0.05210743950758521,0.0632100170629472
0.03382960186264287,0.026247494798808113,0.05296261911040814,0.30998396952185625,0.4300205736697881,0.12814250709269168,0.05213787527723494,0.0635146188431754
0.03383299581481318,0.026197635050774166,0.05294759095893335,0.3078767868838762,0.4302792640962096,0.12800620967629317,0.05215676835311879,0.06379146611690427
0.03381026463366071,0.026151393695527537,0.052928900033873336,0.305757831932448,0.4305458926311782,0.12783917082024082,0.05217128805235659,0.06404818366871257
0.03376256556693539,0.026122030042388635,0.05290672355079748,0.30368983555214524,0.43077305522182807,0.1276696315164181,0.05219498231626517,0.0642787124637462
0.033704401585844826,0.026122210905498305,0.052867862480932136,0.30165920788108574,0.43095556164786997,0.12755803769177676,0.05222742957669432,0.06448396800824834
0.033649655518995396,0.02614396626004444,0.05283982320954115,0.29969302927058655,0.43109517630372923,0.12754209471041575,0.05224816027240139,0.06467822233192737
0.0336049176443796,0.026186337554541327,0.052862278256046134,0.297850570808726,0.43109333900683017,0.12757754560540938,0.0522509775939042,0.06484170810480411
0.033556424326031925,0.026248387989252057,0.05289958187339513,0.2960012017200389,0.4308425372923198,0.1275818913125256,0.052256715133077496,0.06494217480916839
0.033491013670645026,0.026322516521212973,0.05290425110401351,0.2941002060838042,0.4305076093168528,0.12756316530751288,0.05228529831120419,0.0650090078444341
0.033416169947449066,0.026401440760210018,0.05287769961052365,0.29222520818556247,0.4303733443241152,0.1275290742350649,0.05232233483728308,0.06509040596218861
0.03335243320216437,0.02647150419784002,0.05283468167287461,0.2904103182207647,0.4305448130833644,0.12744688894655345,0.05234736374105346,0.06519902954109623
0.03330606825427164,0.02653971020431971,0.05281607011813393,0.28882182513369714,0.43100187803348095,0.12732546473858689,0.05236756861996995,0.06533359059357512
0.0332496211351432,0.02661944555652037,0.05285425207362382,0.28757845726588094,0.4316247116806423,0.12719336783424745,0.05238313960189565,0.06546608824569305
0.033163526612531045,0.026710132252069592,0.052906606915080416,0.2864524666038523,0.43221830230452124,0.12705787551495895,0.052394263026167655,0.06556974043063481
0.033055842126504864,0.02681120683362979,0.05292566651671314,0.28521251699700173,0.4325693970928867,0.12687246446314684,0.052414493336623465,0.06564570059678199
0.03294098176828926,0.026915434346661674,0.05291285936640513,0.283911559453346,0.4325945917055662,0.126606053195216,0.052450101204542014,0.06568841284862265
0.032832740173544525,0.027009205243051768,0.052876268594668624,0.28262704664061844,0.432314710196373,0.12628916270242144,0.05248701209239741,0.06570596673646717
0.03273762016964256,0.02707951149080815,0.05282364903045054,0.28133944618400125,0.4318769993425855,0.12601120996772386,0.052525133740626576,0.0657128105114509
0.032661829326926635,0.027133990855240896,0.052789177797698456,0.28007019321966786,0.43150269094179655,0.12583763078639124,0.052577748638305784,0.06568934512604016
0.032617972750628166,0.027193336380595838,0.05280552928714968,0.2788264017699571,0.4311693332649427,0.12573731323056989,0.05263749021162694,0.06562353845095638
0.03259133312737175,0.02725727930709153,0.0528637931896829,0.27754799258503504,0.4308888404879749,0.12568711260712712,0.052690619176500884,0.06553066592341635
0.03256113012809839,0.02732555811576107,0.0529554059416917,0.2762377042469021,0.4306859299111615,0.1256514697132117,0.05273068564580875,0.06541199338835964
0.03252754776309769,0.027424662282852345,0.05309220178680826,0.2749383028310111,0.4304170209574885,0.12558298465534573,0.05275821858596372,0.06525538468172996
0.03247739340052086,0.0275665284811578,0.05326539921211701,0.27359039613360364,0.43011867105893226,0.1254831507511836,0.05278042203091097,0.06505595361164024
0.03241812157343732,0.027722417650673545,0.05345319126527546,0.2721104759299153,0.42996628245627566,0.12533336882716103,0.05281756400734355,0.06483581148097793
0.03237024357893603,0.02787819799528976,0.0536547624161691,0.27052576567254655,0.42995365932970026,0.12510921022889815,0.052862273529251415,0.06461612871190699
0.03231993859780163,0.02804709575644292,0.053916120950798445,0.2691632748875663,0.4298541036855068,0.12482080945818004,0.05288074880401518,0.06439041147781353
0.032274046618344876,0.028221691885279693,0.05426116022086538,0.2682553564808337,0.4295310843688822,0.1244779226303225,0.052867426084721336,0.06425274328797806
0.03227253589838474,0.028401570190268177,0.05463242302270138,0.2674622071463689,0.4290213679605836,0.12409662045269478,0.052850443874100955,0.06448024083858932
0.03232685115834521,0.028619757237150725,0.05500166753090014,0.26650548105737676,0.428306815911912,0.12367894043808739,0.052843349503723526,0.06513704718447225
0.032407770151886235,0.028867691669029655,0.05538199687935919,0.26541995413279296,0.4273702756645497,0.1232001228603769,0.05283234822527702,0.06593643387332711
0.03248731483985044,0.029103725684175453,0.055759190269665096,0.26425238731524886,0.4262356700876135,0.12266328680110376,0.05281762043965473,0.06670428427718016
0.03256546814918458,0.029321462601020684,0.0561062760062983,0.26300078701399415,0.4250397348901826,0.12222524875646656,0.0528060282600402,0.06745459944475071
0.03264221509205481,0.029528173287232132,0.056410855459773195,0.2616232116765006,0.4240336701345734,0.12208271685011157,0.05279744661603422,0.06819410296566271
0.032710856735555655,0.029730823290421367,0.056694539607286695,0.26011309376749836,0.42325699771979014,0.12215612753571327,0.05277838105756747,0.06889580691428496
0.032785050945361056,0.029936079381440057,0.056984706419649325,0.2584910229306306,0.42252666411795875,0.1222354472444608,0.05274261962945354,0.0695673624248125
0.03286448479757781,0.03013025823934291,0.05729416595482654,0.2567968600051693,0.4217477573470994,0.12226016902651084,0.05270429430647166,0.07024286106425075
0.032928796045859514,0.03030028186436783,0.05761509510443335,0.2550554313168826,0.4208629666160443,0.1222460135480144,0.05266355350672063,0.0709214793278772
0.032978579774567855,0.030460407715456685,0.057906569879708,0.2533039018710627,0.4197707721950994,0.12217462607555875,0.05262054153058305,0.0716091124398038
0.03302110518742412,0.030624283230472674,0.05814953099673666,0.2516513768657406,0.4184611836676981,0.12207530643781671,0.0525887705086431,0.07232476264440534
0.033056646648577125,0.03078490129730844,0.05838596784215839,0.25008846338523333,0.41705857372708455,0.12204965366294536,0.05260789834812275,0.07304646364479336
0.03307878738773336,0.030942248406190385,0.05866273735115623,0.24851248682320248,0.41575554558834554,0.12210786313432857,0.052695752567361025,0.07372645406034596
0.033074716467242124,0.031103000746476067,0.05895776174871799,0.24694559422039644,0.41454234382886995,0.12214594499736062,0.05280246007390944,0.074332460221646
0.03305894878796803,0.03125348323491035,0.0592164752841097,0.24539558951032378,0.41325577329387714,0.12209119166269826,0.05288698282905724,0.07487379810624098
0.03305206573316748,0.03138062497196645,0.05943352016834759,0.2437963756964572,0.4118601486975041,0.12194100431342991,0.052956889253355496,0.075399557011509
0.033040315946585734,0.03150537537608641,0.059637241441407675,0.24217169302686575,0.41036824246896636,0.12171973301970397,0.05303949084519302,0.07591659231008256
0.03303060821630758,0.03164777578968692,0.0598213354644115,0.24066462184888196,0.40885922448988543,0.12145073831415643,0.05312747021855098,0.0763913541625198
0.03304960699084745,0.0318002357755879,0.05998647743445338,0.23937848144686408,0.4074222126384896,0.12114972568632452,0.05320713682805462,0.07683190721923899
0.03308936049479623,0.031955485037227546,0.06018013318305649,0.2382447390807366,0.4059016881911242,0.12081837712588286,0.053292146911120435,0.07726605655944531
0.03312218460786761,0.03210656652553555,0.06041424855225627,0.23723112283149062,0.4043094342216586,0.12044495890853632,0.05336881427993173,0.07768697536748258
0.03314834876632625,0.03226020145122555,0.06068683929224032,0.23636682081227195,0.4028907994002406,0.12002497378422283,0.05341736959829034,0.07806808840680421
0.0331881749899233,0.03242950243486819,0.06099597023588237,0.23551245972115506,0.4016329225242696,0.11960765252737057,0.053445673589637706,0.07839738564115946
0.03323434517171385,0.03260693928373874,0.06128626740091044,0.23450796949359712,0.4004096848697231,0.11932031540189311,0.05346126493063865,0.07867680087946141
0.03327316714394399,0.032791987139089575,0.06151815324584039,0.23336752991528573,0.3991071008808347,0.11931136812632295,0.05347805292218387,0.07890823205228202
0.033304922752648236,0.03297745064851852,0.06170062819505062,0.23215163749999287,0.39762290095299024,0.11955534963102045,0.053502655308650386,0.07910022689280688
0.033329888417991796,0.03314307483360777,0.06184234925063345,0.23091154669617311,0.3959864682099512,0.11982039652573344,0.05352133684484046,0.07924762784613602
0.033355021057337716,0.03328956193887037,0.06194495060433695,0.229696307984389,0.3943263451761909,0.11997830437144019,0.053527650839162874,0.07933217263000669
0.03338697510479491,0.033437660029918895,0.06200334724537523,0.22845252698636984,0.39279894103284596,0.12008037826637695,0.053515442689614265,0.0793565111198576
0.03341205136916202,0.03360721398241088,0.062006031861520816,0.22715590101955538,0.39153368199902533,0.12018243363609633,0.05347884313251496,0.07932992211676355
0.03341046666163794,0.03379044175582289,0.061955422900724075,0.22583003620408026,0.3905605134637866,0.1202710008493984,0.05342563341744391,0.07924795845817356
0.03338338109997572,0.03397320033315532,0.06186057111977199,0.22451759891556372,0.38984762391762967,0.12030646482110884,0.05337664459381873,0.07909973374542291
0.033338614961068526,0.034148647708054154,0.061736862630601644,0.2233797356169916,0.38937101893368964,0.12027104112223595,0.05333842648694376,0.07888827054181878
0.03327029384250657,0.034316932215251214,0.06162578659718278,0.22255704949018648,0.38898717150240025,0.12018121637793483,0.05328380412163185,0.07862320706805248
0.03317950731678631,0.034491574566977726,0.061546959158689664,0.22202326643669082,0.38849852863154977,0.12010630091914214,0.05320017119276303,0.07830712849667508
0.033080691204796356,0.03467212986863738,0.061492369058466625,0.22159919827095248,0.38802377731963744,0.12011257871066827,0.05312229890575301,0.0779492428641097
0.0329876617517762,0.03485816685054149,0.06148775955073956,0.22123368491906015,0.38770317726972775,0.12018314342326536,0.0530767559215898,0.07757845628385482
0.03290694325894786,0.03504926769218392,0.061537649067043315,0.22109168353752384,0.3873966200707077,0.12024158776237374,0.05303543747989655,0.0772157452168868
0.03283139271165258,0.035224969978733485,0.0615861334818558,0.22117030416527478,0.38704361784601843,0.12024826628571478,0.05297814202547359,0.07684105104304606
0.03274748656092072,0.0353657153829997,0.06160648323053337,0.22125930485336198,0.38671338926829396,0.1202054220976359,0.052918991083949846,0.0764285124308396
0.032655668916593154,0.0354795730760044,0.06160658724998976,0.221231115469287,0.3864186354014764,0.12013530649886923,0.052844750486143205,0.07596680033184207
0.03256305818131704,0.03558765943892266,0.06158063929061425,0.22109085587778712,0.38613804134867025,0.12006591611337619,0.052729403831019206,0.07546518335272
0.03246977822966517,0.03568343496790974,0.061523110572580766,0.22085021760388104,0.3858177750389132,0.11997722855560926,0.05257484879653796,0.07499273943349002
0.03239600606159724,0.035767342181384956,0.06143542901986029,0.2204803652862381,0.385312778688137,0.11983673826118318,0.05239631035603065,0.07459545861369885
0.032354337071170386,0.03585987368808012,0.0613189896147358,0.21996721329852228,0.38459813775579377,0.11965351797514014,0.052201689061765665,0.07422365645165203
0.03233004449277384,0.03595387942050849,0.061195212344995274,0.21937765792035915,0.38381068569361415,0.11943628742745944,0.05201192957231523,0.07382978301080742
0.032342454526794503,0.03604920455770295,0.061111337265327866,0.21877576212760544,0.38298109065691294,0.11916667643887173,0.051867119537065604,0.07343523554990741
0.032423390002262686,0.036159071641135104,0.06107239730343663,0.21809578373984528,0.3820317534957617,0.11883384965467901,0.05175875946869911,0.07310728381123437
0.03254973705495541,0.03626937075333621,0.061036361613486814,0.2172749128738854,0.3809621083329685,0.11844756147811408,0.05163188236723681,0.0728433504060193
0.03267259860565048,0.03636660472487921,0.06098308091422218,0.21634012255971655,0.37976504407783845,0.11804393785205035,0.05150078731489496,0.07256736264812323
0.03277194964402738,0.03645124744554735,0.0609200420036066,0.2153306955688614,0.37834696427265446,0.11763749369253707,0.05141927180537923,0.0722667389156771
0.03285540188757113,0.036523764367665496,0.060874473614254854,0.21443137063615253,0.37673221441451843,0.11719531419476707,0.051358516175482025,0.07196958384717272
0.032930251625781386,0.03657792646925166,0.060852346489060766,0.2140928762536291,0.3750512471734409,0.116719379181252,0.051264189299684154,0.07166266168319702
0.03299011447512131,0.03660110718498136,0.06082591950261411,0.21441151475681697,0.3734155382463729,0.11628516052308643,0.05113784112748756,0.07131994936299725
0.0330355839169202,0.036594630472478476,0.06078203311635594,0.2149773225550563,0.3718380719542747,0.11593806627026142,0.0510010430302405,0.07095670497034859
0.03309398535448687,0.03657316329568059,0.06072817437526309,0.21555837584139498,0.37034458404599635,0.11561447182648585,0.050854381193101046,0.07059422930535267
0.03318475829040283,0.03654406376438776,0.06067820054668112,0.21622031067454478,0.3691936192086604,0.11528692456966509,0.050711797758876735,0.07023283890905913
0.03329303643459624,0.03652106355469649,0.060625305098993304,0.21707263440445895,0.36850512291490595,0.11500940013365833,0.050586625058669316,0.06987952147319461
0.033391210722854246,0.036517291726038924,0.06056966606220443,0.21801933316158767,0.3680256542862715,0.11482010836758764,0.05045816946981005,0.06954095323616537
0.03345956758816278,0.036525230370983715,0.06053820019512961,0.2189016148316396,0.36757275783752524,0.11475551347799799,0.050333383624390146,0.06922350607219145
0.0334993367919071,0.03654436293114663,0.06051651549068319,0.21975485672845396,0.3671323441737572,0.11480357300518652,0.0502389723382031,0.0689131967037824
0.03352509416241693,0.03658087044300561,0.06049083592240671,0.2208603071372847,0.3666641803054482,0.11493260118738864,0.05017370679265005,0.06857658476175696
0.033537423735352165,0.036627276655220885,0.060481417746814446,0.2223396578445071,0.36630364321970565,0.11519244248922131,0.05010963961413817,0.0682218241907606
0.03353021117586706,0.03667642065028576,0.06046750553377848,0.22389442222499664,0.3661466932399763,0.11563064902640234,0.05003340867052499,0.06787678997876052
0.03351768458474552,0.036734821962976304,0.060455993963142676,0.22541284678564474,0.3661244611570105,0.11617218709966397,0.04995230210457874,0.06753470660832608
0.03351345889217963,0.036802021921561984,0.06048021959622573,0.2269886481374144,0.36626454386068885,0.11670506821357195,0.049853238187845435,0.06718240419810981
0.03350380554298329,0.03685751542953342,0.06051186222065962,0.2285442660646531,0.36645277723990505,0.11721578219674697,0.049750464828950625,0.066820666955509
0.033482283768706635,0.036888385722464404,0.06052382515575439,0.22993198482374447,0.3665464820789664,0.11768474142699305,0.04967098626431308,0.06644356816373446
0.03345611605951406,0.036902358985599765,0.060510266104860634,0.23111764521646355,0.36662322127024327,0.11806650598313098,0.049593809056866396,0.06603876753576969
0.03341215766562001,0.03690684196558318,0.060472307250056104,0.23215568495609773,0.36680400516622896,0.11837786836409427,0.049498849845322955,0.06560117374660296
0.033351224143798555,0.03690224274719817,0.06041773151810987,0.23311169051966749,0.36737831981363683,0.11868844693051778,0.04940703090969971,0.06513932028948385
0.03329416986056237,0.03688227449550202,0.06034731370679743,0.23401504766506973,0.3684622284315795,0.11901803376274459,0.04933836229290904,0.06466139324458038
0.03324088132073479,0.03685431032439587,0.06026849619269326,0.2348136845321501,0.36961801033802905,0.1192986250949205,0.049265160445795514,0.06416855251899117
0.03317787441734748,0.036832096613052964,0.06018172008928008,0.23551806680040502,0.370567302230482,0.11950533538173723,0.04916094922101576,0.06365523605857909
0.0331056323038962,0.03680203300526481,0.06008072907023572,0.2361583542086133,0.37135159069575463,0.11964117565620858,0.04904723464383994,0.06312282923779121
0.033037997962097984,0.03675780369902095,0.059972924318062365,0.23670328415638284,0.37204414853713147,0.1197090945233988,0.04893791138748265,0.06257936161246433
0.03298152240592388,0.03670006698406908,0.05987207791945071,0.23714310252497572,0.37284218608007225,0.11979220947636045,0.048826208211769716,0.06202583852781544
0.032942461193267075,0.03662277962970109,0.059811414621425335,0.2374552086440267,0.3737604069726491,0.11997001135662913,0.04871902233568049,0.0614766032566488
0.03291340931774602,0.03653355180498217,0.059802618689001864,0.2375980494208067,0.37457875147202013,0.12028501544110491,0.04860288902681594,0.060938685672110554
0.032880587949810657,0.03643298854262617,0.0597966429700595,0.2375989004635635,0.37523391023818775,0.12073764126421818,0.048484995181153984,0.060398741365966326
0.03285087853882422,0.03632167952649143,0.0597599409069398,0.2375642206146567,0.3758460034296388,0.1212947274932431,0.04842570471144115,0.05986406564800779
0.03283086048726448,0.0362135710975732,0.05970056914124006,0.23768279411324664,0.3765433447097499,0.12202474232737254,0.04844258603401488,0.05935500362248842
0.03282681792457759,0.03610194258776355,0.059619570134540625,0.238034764061025,0.3772814405466213,0.1229127801883131,0.04849888293426452,0.05885756177111959
0.03283137456344265,0.03598036878289541,0.05950459001830571,0.23838901161508566,0.377910716321426,0.12380402564121087,0.048572770342596196,0.058344971555643624
0.0328307804067414,0.03586945710311443,0.059357216492589814,0.2385512031254203,0.3783483760244891,0.12461056145140866,0.04865672655247701,0.057811700187274453
0.032825259862732575,0.03577553724395888,0.059199057398045034,0.23857632973505258,0.37868924145717475,0.12529517440480825,0.04872348913986625,0.057265847186508595
0.03281503234382965,0.03567790361457189,0.05903742008249891,0.23852381115566704,0.37903747917095487,0.12589593164111426,0.04875368295893175,0.056721858199368
0.032806998226018125,0.03556343995250399,0.058852553884728855,0.23837032844847292,0.3793723747298689,0.12648275677016294,0.04875555395783844,0.05618686336347697
0.03279438399443387,0.03543967409060706,0.058645646723073826,0.23817390495418922,0.37965406888975095,0.12700888700887952,0.04874370304418098,0.05566767428361352
0.032764028953928596,0.035307129756328985,0.058457971897322894,0.23803019971393016,0.37984448590519976,0.12742296435571687,0.0487387958255663,0.05516410534366109
0.03272341931483345,0.03515294448461341,0.05830224673722522,0.2379370605244356,0.3800410118678805,0.12779631799358263,0.048747221246287796,0.05465590605101399
0.032679725864462376,0.03497820756708044,0.05815048935390149,0.23798598324901926,0.3803367949301565,0.12821058862577026,0.0487483339222167,0.054130396349478985
0.0326331247971543,0.034797352708333736,0.05799598788028668,0.23829109434202647,0.3806470047339861,0.128663598198275,0.048729078655848905,0.05359552178601662
0.03258378745760857,0.034610820375432644,0.057839010725771155,0.23870724715065406,0.38079688005068124,0.12911979613661187,0.048690359152804785,0.05305889166450511
0.032531880386210126,0.03441235142145166,0.05766644511748213,0.23940304924896993,0.38098713640272747,0.12953180177710735,0.04863305863845955,0.052521100357186185
0.0324708794128783,0.03422271403960447,0.05745907721095929,0.2408203212362995,0.38188443071291006,0.12984765015623462,0.04857809775767632,0.051976031573975116
0.032394552663560054,0.03405507943331786,0.05723867744905037,0.24283273904005354,0.38355077478862426,0.1300845868918816,0.048572229578820104,0.051424527796351156
0.032310325782885806,0.03389528137508629,0.057052826609200705,0.24501133970142744,0.3853026022535396,0.13029261412566787,0.048626698287197075,0.05088077301551218
0.03222530935134353,0.033749819546316825,0.056886830841115184,0.24710610387525056,0.38676677955822897,0.13045272945880218,0.04869871355258534,0.05034495544909445
0.03213293380370656,0.03362489733544388,0.05670655780397079,0.2490852226551658,0.38800119503035346,0.1305668603852001,0.04875401356925898,0.04980387556432385
0.032020236214512034,0.033506370862322124,0.056506116023360635,0.25097186871434884,0.38900126961676673,0.13071712648172745,0.048793271331835586,0.049251598466169895
0.031888208507303666,0.03338070471316046,0.05629994738076515,0.25272143746185666,0.38970936186115146,0.13092187023684776,0.048823832030978606,0.04868914393266043
0.03175119007056015,0.03324833047467951,0.05610187169551121,0.25428470904353273,0.3902377659369062,0.13110498108918037,0.04883267219639509,0.048110811297539004
0.03162290197388677,0.03312303936294978,0.05589835659857294,0.25563484023958655,0.39087459036487854,0.1311936768477083,0.048807355279719564,0.047517848907985015
0.03150308868277335,0.033011330486043065,0.05569652090177002,0.25678647583618297,0.39168805427741016,0.1311786029069046,0.04874939006402858,0.04692483689498326
0.031378125677126195,0.032919407411907284,0.05552323030061383,0.25779393157062763,0.39240894401276305,0.13108434113175452,0.04866693724022774,0.04633903588439336
0.03124167143426991,0.032853185022304665,0.05538409758535764,0.25866918628956354,0.39292023935667536,0.13094116755471302,0.0485745124609669,0.045767384020206074
0.031094357058991114,0.032798238485176386,0.05528445865776635,0.2593770242356303,0.39323724084193595,0.13077808974439864,0.04847263830099566,0.04521650428008443
0.030936796715347596,0.032734072978370846,0.05520932154976485,0.2598972935373135,0.39330122617916125,0.13058944415268733,0.04834845184037064,0.04467933986898145
0.030776273724058792,0.032674522980409154,0.05514432213414895,0.2602577008139188,0.39307632706715334,0.13040995375736528,0.048189670675461226,0.0441491274129434
0.03062644371389505,0.032632817318259226,0.05510914047930214,0.26053170467254033,0.39254857067115256,0.13039985689325848,0.04801132336630144,0.04361939073771392
0.030507044520959304,0.03260153485270252,0.055142630505479115,0.26073616726310733,0.39195895001131686,0.1306387194920392,0.04785454809340237,0.04309730654871389
0.030430240914406492,0.03258693878530553,0.05526183352384598,0.26084048342715005,0.39163833447533447,0.1309550291846764,0.04772524472604595,0.04260310419843441
0.03038088408734755,0.032608375940558446,0.05541610800096407,0.26079541681641605,0.39152854194435244,0.13121139594548198,0.047602286407934534,0.04214273511965465
0.03034445704623165,0.0326709457050207,0.05555029328485319,0.2606141885201717,0.3917341780438131,0.13149040861788072,0.04749220206911139,0.04170848754561099
0.030313747123937324,0.0327460563830256,0.05564507496822819,0.2604098658553447,0.39254220481310087,0.1318509873121837,0.047394538533173304,0.04127958770763501
0.030281849569825322,0.03282640452386523,0.055708759835176654,0.26026388112852183,0.39369165607503925,0.13222906576593021,0.0472821065090252,0.04084953133406144
0.030262218697351188,0.03291168495565694,0.055762695617771675,0.2601470963097574,0.3946985682644324,0.13261014658499895,0.04715565632681389,0.040418783875664784
0.030267712302274166,0.0329882290980641,0.05582731176625451,0.25996475186866375,0.3953943286880854,0.1330004173425597,0.047029291152023596,0.03997441931534861
0.030283861355162176,0.03305634269961862,0.05592882558500113,0.25980679023120373,0.3957984730996324,0.13338572998786713,0.04691650119634778,0.03951745840792975
0.03029681531025156,0.033109640407149706,0.0560922794483811,0.25991299866147366,0.3959700855622008,0.1337726139416214,0.04683686328461362,0.03906226161923271
0.030300014554383803,0.03314871460940477,0.05630813791135693,0.2603319683493952,0.39614642781943027,0.13414056954632708,0.04678232768205296,0.03860919175059982
0.030293879902767717,0.033187517592270836,0.056527113586108624,0.26086918259016717,0.39646752912167843,0.13447669221249434,0.04675185618524274,0.0381652797381002
0.030292194803100858,0.033239395588430996,0.0567421736488855,0.2613652073188446,0.3968131275497742,0.1348154705483341,0.046751118429049845,0.03774392809198983
0.030288081566925664,0.03330373032098265,0.056959966585164126,0.2618414114623967,0.3970547917667073,0.13518320589591767,0.046752079190100444,0.03733787725567443
0.030274963729049906,0.033366546446590296,0.05714673359840116,0.26232494042244514,0.3971232595642036,0.13552479723180116,0.0467346058670916,0.03694685432838879
0.03026661716908326,0.03341447740507739,0.05729695669536511,0.26286849670619383,0.39717976826593554,0.13580093516910496,0.04669283045277701,0.03656389780599938
0.03025615664875567,0.033434751868509506,0.05741876486363266,0.2635358065193839,0.397498907134632,0.1360944289280701,0.046614477449905226,0.03616896900985925
0.030236998177832482,0.03343523806692633,0.057493217451087854,0.2642138724772412,0.3980555832122941,0.1364644145263018,0.04650121203082208,0.03576965544366899
0.030216224187694648,0.0334435392727597,0.057535672386236414,0.26475448153665665,0.39857149840409806,0.13688046689562056,0.04636803261960538,0.03537990507347453
0.03018723898468489,0.03346599381437954,0.05758090895260123,0.26514971323723124,0.39884066136659324,0.13732012460906837,0.04622261913550828,0.03498630668876215
0.030150427381290153,0.03348859305313044,0.057622076643552886,0.2655525945646965,0.39895376663455023,0.13778193740370417,0.046065643613800424,0.03457603559593312
0.03011285097749656,0.03351130888288398,0.05765931253267864,0.266056007496204,0.3991381231924875,0.13827118260451005,0.045897760047978985,0.03415689837429292
0.0300678933321931,0.03354080026048443,0.05770612344104514,0.2666417253764921,0.39944394436996367,0.138772823856654,0.04572629049655366,0.03374305687173798
0.030022604564881532,0.03357005831934446,0.057762048080573544,0.2673657796491435,0.3997453093357373,0.13922566458339272,0.045558242290331265,0.03334136644749757
0.029997100650756878,0.033599064951849666,0.05784669427277769,0.2682348316032283,0.39989502980055197,0.13957121470001196,0.04538694303590398,0.03295837282100181
0.029990546435240708,0.033641174988301895,0.05798547598065515,0.2691681956627905,0.39988617922305075,0.13981380305538224,0.04521269939037489,0.03260031920821451
0.029988752853487392,0.03369577834838701,0.058162534780550675,0.2700618866445495,0.3997724587414267,0.1399844136021078,0.045049179435568305,0.03225309557746031
0.02997145689501019,0.033755593447986613,0.05833592062692769,0.27091007983884136,0.3995518494518818,0.14009938142581776,0.04490276098153926,0.031916566519797906
0.029932662980106335,0.0338136501022553,0.058478881923290905,0.2717139335358251,0.39917572170006466,0.14015432760643992,0.044766156263468235,0.03160396409402255
0.029880028738119183,0.03385659676847698,0.05859260278871756,0.2723542513229755,0.39863782496563643,0.14014512146273614,0.0446323847414653,0.031301178426086027
0.029807520479637126,0.03388504860891406,0.05871167388531809,0.27277734809641957,0.39795239439295804,0.1401213613858235,0.044508138397259873,0.03100138928188268
0.029709385904302364,0.03391297995525791,0.05884911966445907,0.27303905668887213,0.3970596434582659,0.1400903887291147,0.044393123253562226,0.03071144182494377
0.02959351933444589,0.03395375836862525,0.058977265118282274,0.27315950968267544,0.3959961872529236,0.13999905919377528,0.04427367728782995,0.030424502343348862
0.029467489153283084,0.034006786193759325,0.059089704734328855,0.27307786969568987,0.39483733024095646,0.13982334002410746,0.04413673645646773,0.03012734523502023
0.029325172753948508,0.034051422058843414,0.05917364056900089,0.2727695679933375,0.3935615931766041,0.13955369622071667,0.0439765072755062,0.029827387360823715
0.02916741527301067,0.03408130160038344,0.059223544303004624,0.2723182976016605,0.3922688902379996,0.13919446972675742,0.04380084241619496,0.029538411930225748
0.029008411936178837,0.0341104091354477,0.05925421857573437,0.2717908806743452,0.39118852916279684,0.13880338792002903,0.043630640112013876,0.029253534719800224
0.02884837039134645,0.03413875011113142,0.059253097506536755,0.27123125117213837,0.3902521517866725,0.1384290143588542,0.04347919920815506,0.028966166712591106
0.028674118356826702,0.034166330477883235,0.059214877932251934,0.27076838235044565,0.38918028100009394,0.13805761248980628,0.04334585060966716,0.02868337953908985
0.02849981350576755,0.03419315666188658,0.05914120891607835,0.2704319459868727,0.38795978180895674,0.13768941173887853,0.04322325087689412,0.028411933100222993
0.02834568427602868,0.03420586362989212,0.059027016129020074,0.27024351641604266,0.386698580683559,0.1372911987008544,0.04309099340343527,0.028144910679430177
0.028211002711220668,0.03423179649993038,0.058894228693458284,0.2702570173109236,0.38541972185197426,0.13685797609452635,0.04296299747363591,0.027882377818261073
0.028095053713782812,0.034297099302972346,0.05877052667882978,0.2702965116280005,0.3841586370805249,0.1364585430972539,0.04285925933081446,0.027631078829832092
0.028003821130711627,0.03437994025834924,0.058682378509125464,0.27016693898926475,0.38293582933322345,0.13606507314734925,0.04277213901914601,0.027397454098619788
0.027949690865036656,0.034472791290638065,0.05864838210882737,0.2699359451044589,0.38171738600346217,0.1356241993496697,0.042721056360321266,0.027180961116156966
0.027917730937478954,0.03456844180280606,0.058639473245902525,0.26976862327739576,0.38042406230925535,0.1351584651991156,0.04271118056163319,0.026967692501499736
0.027893636853634548,0.03465330588699359,0.058621140538425556,0.2696556821389401,0.3790469889891613,0.1346961444884098,0.042720672596456594,0.02675771403271779
0.027890461962444962,0.03472777035084565,0.05859381121109322,0.269494578229586,0.37771148214505057,0.13421747736071982,0.04273530973770932,0.026557771407126708
0.027907300257861936,0.03479221523293894,0.05856458856279498,0.2692273864745272,0.376423710751489,0.13367014866064175,0.042741482358466254,0.02636762153572622
0.02792320792163971,0.034840327775892896,0.05852021117461182,0.2688121733390823,0.3750558105336585,0.13303092676203532,0.04273955233639672,0.026187022438990907
0.027918152175338766,0.03485939936524023,0.058448008551069616,0.26824240024174084,0.3735925263536155,0.1323244799958551,0.04273655960002657,0.026009047478127437
0.02789304889268938,0.03485067360165263,0.058342573627478626,0.2676055653195159,0.3720527878634801,0.1316078993701308,0.04271918131201846,0.025827068487162836
0.027862165409823763,0.03484211069663894,0.058205452348111614,0.26698542910598694,0.3704748337764793,0.13093580471117358,0.042674687484896424,0.02564812110977414
0.02783915463731435,0.034847083748192516,0.05804484002148661,0.26631500509716527,0.3689888813446971,0.1303069116869319,0.04261767132454076,0.025478932319601334
0.02783706857983562,0.03485831377809717,0.05784854063481626,0.2655102084634719,0.36763916878572056,0.12965977648197743,0.042562103959270056,0.025312555431158696
0.027854999940157693,0.03490226185577982,0.05761160857691453,0.2645442257542376,0.36640102081448905,0.12897575873973238,0.04249460416823241,0.025149028875805328
0.027878689615023128,0.03499083565439714,0.057342724291216306,0.2633982503017957,0.36531090032192476,0.12828386543173506,0.04239569779508878,0.025008444525434697
0.027894492590092995,0.0350885806211086,0.05705022184883576,0.26212801197421676,0.3642965674783622,0.1275650489175272,0.04226684514222351,0.024903313029675776
0.027889364427290952,0.03517494598170321,0.056762153817054795,0.26084042642543287,0.36321530306780936,0.12678105742727913,0.0421161579180154,0.02483219523556131
0.027870905621974234,0.03526371478007013,0.05649866346643144,0.25953080462944983,0.36209780339847203,0.12594216607374012,0.04193804449741563,0.024780309784072443
0.027866457112234618,0.03538144068760857,0.05628568094100411,0.25816793878611516,0.36106038321657086,0.1251050581323652,0.04172718272508504,0.02472681313796483
0.02788210031103256,0.035526751677962695,0.05614127483985624,0.25694935111619194,0.3602409691620319,0.12429720809350481,0.04149857120586735,0.024665141007286666
0.02791026104992717,0.03567825085392576,0.05600911686542849,0.25609058477613017,0.35977796957323754,0.12351812444395123,0.04128663175906509,0.024595708209047377
0.027957054129394966,0.03582215112862417,0.05584200067024188,0.25555677447549524,0.3596697148927198,0.12278736712017496,0.04110421640000927,0.02453229093455339
0.028014938726539113,0.03593858593340095,0.05566166461250474,0.25520059509640647,0.3597070010537738,0.1220834836748663,0.040943532276637544,0.024494746859025807
0.028056633144314638,0.03601526449793697,0.055482229190087946,0.25488095223764273,0.3596227151774471,0.12138592796019045,0.04082384802204575,0.024475301920625234
0.028069428786803637,0.036060526408152056,0.0552770846815638,0.2544895914848249,0.35932193239798577,0.12072184225835347,0.04075018343432956,0.0244531305078065
0.028061255089301875,0.03610912298957734,0.05507429017980831,0.2542105280297057,0.35915533492281865,0.1201104710804588,0.040680494061548396,0.02442837250820836
0.028053089055849433,0.036194292183487714,0.054920741026333764,0.2543467051532149,0.3595184096398811,0.11959691556598012,0.04060798848197419,0.02441453613594137
0.02807168205375875,0.036307676499036726,0.054801073532975815,0.25469942579420574,0.36035435864684634,0.11925765226062687,0.04055291693954595,0.024424532043659596
0.028122539237698432,0.03644125439130395,0.05471393085868169,0.2548978977144351,0.36159502383115905,0.11907874864870782,0.04049451712073152,0.024457314917683395
0.02817746560881747,0.03658733340661004,0.054637925862650046,0.25486840093449575,0.3630477851248519,0.1189196897246353,0.04041293217905047,0.024491805008025804
0.028209487490715092,0.0367184854455598,0.054532532195436315,0.2546676722922407,0.3644613287132316,0.11869953522273866,0.040309248419757956,0.024514522919070796
0.028219569313200393,0.036828546606596,0.05439912873150346,0.25437689218116105,0.36596302729619445,0.11848801221878531,0.040211270092854565,0.024532644247901365
0.028235398593815776,0.03693838502713793,0.05426580528275092,0.25402699845324056,0.3677548647661027,0.1183651812813115,0.040145587669627565,0.02455303720423927
0.0282834541035806,0.037061276252971405,0.05415943090387591,0.2535807820441357,0.36972889949084903,0.11828719103974908,0.040097489192738485,0.02456889742926163
0.02834891710623779,0.03718316250523985,0.054065565276766044,0.25301611576033245,0.37155438224405785,0.11818530863546432,0.040052885056247836,0.024573720632626566
0.02840422411921325,0.03729059787471008,0.053957011621752586,0.2523386921471721,0.37314908875725017,0.11808741451154975,0.04001835242556164,0.02456798178622247
0.028443077134942818,0.037384106621625224,0.053834513028155305,0.2515340073704764,0.3745883676714245,0.11800680177082384,0.04000017292326215,0.02455883137253574
0.02846615367354578,0.03747088962321611,0.05373222352703703,0.25061505455849037,0.3758240961334837,0.11788930962120703,0.0399842815453719,0.02455979838816819
0.028480802997934894,0.037571213234630974,0.053676107476104004,0.24964117420338638,0.37686392668073526,0.11773665413739616,0.03997728015467269,0.024583814141536327
0.028494063135014038,0.037711135991282854,0.05365084061514536,0.24876278446477976,0.37780228583017117,0.11757725458432612,0.039992161092691124,0.024629853833559524
0.02849929569779514,0.0378954879275574,0.05365510674532435,0.2481036168295508,0.3786092474590674,0.1173647562455362,0.040001215250696005,0.024670172119870385
0.02848347257514843,0.038095416518040895,0.05369430430689289,0.24755449178318018,0.3794100897252248,0.1170882998443336,0.040004687097912627,0.024691606798703605
0.028447524045966486,0.038276622069586826,0.053760191511378966,0.24703761192893114,0.3805854047777977,0.1168579069303029,0.04002955968577701,0.024708329696689346
0.028405731300727103,0.038426371365943755,0.05383817300684429,0.2465988767028385,0.3822916195223154,0.11675202963304178,0.04008825091217384,0.024733901333899088
0.0283583886558028,0.03855257276106677,0.053894218162984904,0.24621525593509538,0.3843569247773643,0.11670518559209958,0.040172548526627855,0.02478128439716427
0.028292411087442862,0.0386694996290643,0.05392922614443628,0.2458111794197518,0.3865096556116017,0.11664799512267693,0.04024114266081866,0.02484279934262923
0.028208672098040923,0.038784128075501516,0.053970821168074126,0.2454079840609212,0.3886035294694666,0.11664782259771496,0.040287963552859594,0.02489102884531506
0.028121396286596583,0.03888976136073309,0.05401867682792096,0.24502607868860943,0.3904919915659635,0.11675567802669551,0.04034065600180057,0.024913131770923462
0.028037507563764955,0.038973316490907337,0.05406578890401334,0.24455124560308197,0.3920283682060474,0.11687984538048753,0.04041228588845787,0.024910222145475145
0.027956939728337068,0.03902898628018051,0.05411883018020879,0.2439946674762982,0.3932264764555886,0.11696600829399285,0.04050196110732674,0.024896761639827618
0.027872940295715312,0.03906461473146272,0.05417749178730169,0.2435275828415064,0.3942603224175989,0.11704247893224669,0.04058206708233136,0.024893279614137953
0.027779053532445246,0.039081038370624356,0.05422810094404584,0.24316661144341628,0.3953031950684916,0.11714303442910003,0.040632884457986185,0.02489934580202681
0.02767579974724557,0.039065704003927976,0.05425758681212691,0.24276039949455316,0.3962467200482311,0.11729327488180959,0.040669008856495006,0.024901167508429037
0.027563685681393,0.03902000652190215,0.05426015291114098,0.24223107370490632,0.39690709701212845,0.11747083825485528,0.040711101767258506,0.024885555515874087
0.027443204609087068,0.03895868142020178,0.0542436525520209,0.2416379828128028,0.397322736796711,0.11759413431872622,0.040752177228512834,0.024853282501206143
0.027314836446455,0.0388891529773406,0.054208930222983044,0.2410914456728954,0.39761084877263836,0.1176252865718125,0.04077886789084616,0.024811789602873224
0.027185733822860922,0.03881184480564119,0.054156811306040054,0.2405632230604268,0.39772320904272795,0.11758832703228503,0.040785087142457294,0.02476151754186833
0.027069425203913613,0.03872048366547892,0.05410147401872223,0.24001959928787342,0.39755368543282754,0.11751299508689382,0.04077171859130223,0.024716268271081636
0.026978838806048868,0.038602396542259144,0.05405648355248366,0.23962223136657448,0.3970946333818066,0.1174478326665222,0.04075968422019226,0.02468923911209025
0.026912944291493844,0.03845217290038533,0.05401474775380013,0.23939857695904465,0.3963523919625829,0.11740583265945022,0.040755623623130115,0.024672978426605534
0.026864046304584478,0.038284726214439076,0.05395610761760157,0.23918084013921825,0.3955004470301593,0.11737265715239002,0.04075250825531384,0.024653662046723868
0.0268314534466037,0.03812771041026617,0.05388804031170233,0.2388753706034684,0.39487200014746787,0.11733458278556004,0.04075030004824441,0.02463144141042177
0.026801116714629303,0.03798082378883471,0.053831079083314054,0.23854644939172942,0.39453817708606703,0.11729854515791195,0.04076233362022376,0.024613150132757215
0.026766281399753962,0.0378170241661843,0.0537847962955714,0.23828901653809145,0.39427923228424616,0.11729123436885872,0.040808036320683215,0.024598635117311682
0.02674054853341512,0.037623832748961916,0.05375545853992677,0.23814701563534843,0.39388489722432757,0.11727129338884054,0.040872528981752886,0.024614490091513466
0.02673691930839502,0.03741608521877715,0.05376910158789456,0.23812893943640243,0.393394865945229,0.11718580269810652,0.04093487493484211,0.02467943784273679
0.02675443668549142,0.037214672560203624,0.05383721638856662,0.23807564313532126,0.3929608611379296,0.1170310074277525,0.040995107276947516,0.024764538459892984
0.0267654209826326,0.0370128279799374,0.05397742790177704,0.2380355104014491,0.39258086710189716,0.11688361424056051,0.041093375432217846,0.02485546210601495
0.026770145498816404,0.03679739320748128,0.0541998396124831,0.23820190061034677,0.3923063912207395,0.11685041903424635,0.041274733311432256,0.024958553906838096
0.02679562151646973,0.03658253871944036,0.054473920861416045,0.23841190144974259,0.39211305518990036,0.11688637550739568,0.04148859337219315,0.025059813642249643
0.026834236702017372,0.03638181863537683,0.05475035999343553,0.23855643975324026,0.3917568252741827,0.11690152646469165,0.04167316313363754,0.025145851258973208
0.026872010886741304,0.03618812655434869,0.05499535788854284,0.23867165051019057,0.391178264618748,0.11688338950178921,0.04182285130001431,0.025223931144638164
0.026908944148880166,0.03600134406252849,0.055210044337464216,0.2387520110051637,0.3905079406381493,0.11682005679110742,0.041932343228683694,0.0253010096859767
0.02694503737512973,0.03582803717529572,0.05540890120643169,0.23881233002777702,0.38976386009245323,0.11669349565493874,0.04200996594702828,0.02537037002917314
0.026973606270509397,0.03565441570087044,0.05560579631546305,0.23895370958474219,0.38883628531264053,0.11649989000075178,0.04208377325055891,0.025418908707467016
0.02698826427918491,0.035480660930511276,0.055820682688202256,0.2394131849395306,0.38766054030218067,0.11626239811315069,0.04216054564107852,0.02544079773872208
0.02698960176577676,0.03532700426834869,0.05605925698553623,0.2401564313616782,0.38621511496296296,0.1159898423639009,0.042220022285528375,0.025450545994447626
0.02698488225408858,0.03517934876190505,0.056293515672509335,0.24091633338938054,0.3845264959848236,0.11566395177226814,0.04224952546424952,0.025462043565083324
0.026987745423674193,0.035030890220841694,0.05649667631128622,0.24169811954847656,0.382787402685001,0.11529404465513422,0.042257015184572984,0.025461831423373906
0.027004544949020583,0.034908550685919575,0.056656522261785074,0.24254019979528688,0.38112205465017435,0.11490244879302502,0.042250126793765795,0.02544373268103141
0.027034658988473716,0.034804627278028966,0.0567680955459002,0.24331210786692803,0.37946868138222023,0.11456403025547154,0.04222280580783334,0.025428599959574683
0.027064107960727984,0.03470504812312599,0.05684007215349551,0.244049577730876,0.37782167277404943,0.11433697846026526,0.042169280574762935,0.025443062792897254
0.02708620638191008,0.03461640652741292,0.05689416118416739,0.24486036923124274,0.3761221687353693,0.11414981348079745,0.042090741509992396,0.02548582110405401
0.0271213102077642,0.03452494085429463,0.056951145609171666,0.2456535959079318,0.37422700029611655,0.11392743718295244,0.04198166549299484,0.025528860178606082
0.027168820380713717,0.03442417617791904,0.05701084459048912,0.24642256929971254,0.3722334173798704,0.11363816464057475,0.04184348485337954,0.025558754355838334
0.02720809403605061,0.03431461388064569,0.05705971061963523,0.2472344605118822,0.3703749438360127,0.11331192600926951,0.04170434159221266,0.025596103866174835
