0.3396761312601471,0.8878217509494356,1.0655478786674335,0.8680123075327335,0.4165801166799578,0.27217308574599486,0.4420094876736593,0.1343016521130547
0.33448998773201893,0.8713802231142732,1.043571431046355,0.8565437959392421,0.41244709479179065,0.280441631571139,0.43818680841499924,0.13264742818142938
0.3292330300098773,0.8549322687979585,1.0221375473283143,0.8459234532407949,0.4082893801556695,0.2903199029306323,0.4345083645859659,0.13097714383647474
0.3239468404462361,0.8384739888597504,1.0009759045621975,0.8356299137920502,0.4041655474689996,0.3020025343501406,0.4309580676395992,0.12930648146596205
0.3186712225989246,0.8220150354782485,0.9798744658862463,0.8252376985697142,0.40020513877292047,0.315627158580893,0.42748697468967684,0.12763707041541633
0.31339743842415535,0.8055445841715881,0.9588509871447319,0.8147945584515829,0.39641156173768305,0.33052123799321914,0.42394790394929416,0.12596378206278191
0.30812381378524933,0.7891057795837625,0.9379491211294505,0.8043328464943079,0.3926876255712198,0.34587977249278273,0.42024693691812365,0.12428171440034994
0.30284874714333093,0.7727666047148505,0.9171971343247384,0.7938701558312812,0.3890740148850459,0.36141368462643514,0.4164281118320066,0.12259287287365274
0.29757070794867785,0.7565117606378121,0.8965818044337611,0.7836506384488031,0.386004011069374,0.37772214986140956,0.4125537248338285,0.12091924018110119
0.2923016069417315,0.7402931020740067,0.8761572113600103,0.7740948083332465,0.3837110211185008,0.3958388887564064,0.4086232449593148,0.11928182905069389
0.2870394567284041,0.7241046567516616,0.8560618181528536,0.7654036861071043,0.38203645947330533,0.4161492185292459,0.40457604488473503,0.11765390242590279
0.2817689776606104,0.7079674265796009,0.8363341495870986,0.7573073911193768,0.38136959735268977,0.43850477568689544,0.4003743024752918,0.11600987598769241
0.2764822480827177,0.6919014513559453,0.8169505276904933,0.7494669650224531,0.38182106459829585,0.462741611669288,0.39601541817860103,0.1143520365773937
0.2712118219988234,0.6759191452766141,0.7978679134308654,0.7418855440803358,0.3828871819827453,0.48864759863018664,0.3915438587987478,0.11268258499416423
0.2659955089498531,0.6600924758722969,0.7790782772612037,0.7347865147003544,0.38467392888535745,0.5153028184673869,0.38700226755659833,0.11103038142591297
0.260849365307974,0.6444968189262541,0.760620457396451,0.7281624535328024,0.3872418677645709,0.5415391099725484,0.3823713285794088,0.1094297012051742
0.2557686240879303,0.629103762327363,0.7425245979839012,0.7216915614231454,0.3901534144593066,0.5673159189945901,0.377659395467367,0.10785310685473519
0.25073529040996406,0.6138859330526846,0.7248860433087597,0.7152931979909807,0.39310333009638376,0.5934975011273206,0.37288790890686774,0.10626095806760794
0.2457588494332561,0.5988370363018529,0.7076551478085418,0.7090105043431596,0.39595338026440247,0.6205357503791601,0.36804400557523237,0.10465546790049363
0.24084163324642333,0.5839241439132302,0.6907238561781587,0.702784345848669,0.39870515320789846,0.647926062468587,0.3631221370104108,0.10304545207318155
0.23599250137047442,0.5691490571292128,0.6740754369542776,0.6967787395558481,0.40130008944522483,0.675111875971171,0.35813712899900724,0.10143266162178136
0.23123992045558367,0.5545334237367411,0.6576066952623048,0.6910166429231497,0.40366226782791087,0.7020022859796832,0.35313665378127906,0.09983883202996828
0.22656422520315983,0.5400777389850125,0.6412655489093206,0.6853325739531883,0.40603353101914125,0.728289986686395,0.34817301282393515,0.09829142188585248
0.22194653066798736,0.5257823221813083,0.6250889732217537,0.6797486873189708,0.40851148423539485,0.7533473108342991,0.3432226537075063,0.09677653598837231
0.21738877444158192,0.5116673818909453,0.6091456076025339,0.6742192186717649,0.4108484044654878,0.7769561545140757,0.3382496627830228,0.09527416561658854
0.21287269418580793,0.49773870234244083,0.5934941975349068,0.6686067365180585,0.41292113120835877,0.7993238193828994,0.3332598246510983,0.09379190328864974
0.20840083880354765,0.48397489276356476,0.5780569346920396,0.6628935229964856,0.41475251616451936,0.8206765406256,0.32822525902905036,0.09233030621260145
0.204002347552021,0.4703753906374028,0.5627859290820179,0.6571830746231124,0.4165786015163249,0.8414189086570021,0.3231126544361728,0.09088988743129396
0.19967159280434818,0.45697292903432035,0.5478090461329248,0.6514874702624651,0.41853825963324337,0.8617312565585732,0.31793033805275733,0.08951123297119856
0.19538306823191628,0.4437986283357349,0.5332081950299049,0.6458449933616581,0.4203563558433109,0.8813251651200589,0.3127398301259001,0.08821304764734501
0.19113907896341936,0.43084860650018175,0.5188808416893895,0.6404593612723932,0.42186345184288876,0.9002463681760036,0.3075932994132062,0.08695965811129445
0.18697521672986336,0.4181122477043685,0.5047487015999091,0.6352376945437282,0.42307829350684495,0.9187130963986553,0.3024670596570858,0.08576369967871697
0.18291876326479337,0.40561262094234624,0.49089048068644303,0.6300909916260927,0.4241862430897814,0.9366136099250733,0.29735180623628726,0.08464388908899628
0.1789355374542993,0.3933782501189685,0.4773745141982015,0.6254154349757006,0.4254917440104386,0.9538750011108342,0.29223862826758407,0.08355788261764706
0.1750262026441105,0.3814161056449332,0.46420566377358535,0.6213889569297815,0.42712535607317853,0.9706487841283183,0.28715242986898154,0.0825119456860677
0.17123812369535774,0.36972590625120016,0.45136818680121754,0.6175994528857746,0.4294590289662585,0.9868597231688115,0.2821638085490377,0.08154546252961793
0.16754963056019792,0.358287062483589,0.4387932172326493,0.6140001676242944,0.4326740381401287,1.00239627956032,0.2772666542081037,0.08064254154887572
0.16391984088521327,0.34709300887037087,0.4264748018378651,0.611014210881939,0.43613393015514634,1.0173128756643588,0.2724750918258997,0.0797812344155343
0.16035639391833012,0.3361439148759495,0.4144671719929572,0.6085242090488666,0.4393567062082209,1.0317892005075504,0.26779584466601414,0.07894719237357216
0.15685316097590407,0.3254062763368219,0.4027349849302925,0.6060429968958598,0.4423428731485005,1.0468466757222616,0.26314163203250873,0.07810660602601034
0.153410907525696,0.3149147004519506,0.3911906801933901,0.6034188109624287,0.4451934335425075,1.0630138157206723,0.25845568577494366,0.07725388534265104
0.15007042262411244,0.3047354827315966,0.3798372383967763,0.6007005135723805,0.44790484236385525,1.0797052857855338,0.2537439089020818,0.0764171247011085
0.14682382285507517,0.2948515047152646,0.36877761567461087,0.5978814468980206,0.45040698344048685,1.0963205657623247,0.24905208856230815,0.07561649623808814
0.1436300469759557,0.28520599108784966,0.3580765806316881,0.5950221992641318,0.4528603120669816,1.1122251318639846,0.24442400289611627,0.07486457464593946
0.140483196887397,0.2757510895126987,0.3477021377158071,0.5921406491169388,0.45535818427873426,1.127668522653852,0.2398479784420449,0.07415328328130256
0.13741101526662342,0.26650770265745427,0.3376367383882624,0.5891870599613283,0.4580433438302355,1.143825911482357,0.23532617067086137,0.07346148534786204
0.13443996710846198,0.2575156784951399,0.3278833562058916,0.5862476452993719,0.46107889435980753,1.161412870464269,0.23088733285832957,0.07277562971124146
0.1315818977901681,0.24873934518213728,0.3184044185481695,0.5834516601057516,0.4642661577714913,1.180510759549248,0.22655888866635918,0.07209612029092494
0.1288279709961552,0.24013768685210568,0.30923726609943847,0.5808356865332723,0.46755534835687057,1.2008014730815013,0.22234690558490486,0.0714367092349636
0.12617631981580774,0.23176490475793773,0.3004106298923118,0.5784011134484143,0.47092548932377604,1.2216452798043775,0.21819021545589465,0.07079047380749112
0.12363843163529212,0.2236926816623789,0.29183131649304234,0.5760822346905806,0.4740956850902252,1.2424096569910388,0.214043626790993,0.07016415129735157
0.12117838313127342,0.21588231982199374,0.28341662949164076,0.573789343935274,0.4769445307890345,1.2631582411255176,0.2099040179303507,0.06959759676165879
0.11874836501844539,0.20828986439052466,0.2751474808110825,0.5715101535708892,0.4795434143212456,1.284266158376204,0.20576839613142311,0.06909544583038173
0.1163427323597125,0.20093323385030154,0.26706564495133384,0.5692195248251023,0.48190737502154324,1.305383175254811,0.20164726676428982,0.06861526882946868
0.11397611984602635,0.1937959105676792,0.2592042142534551,0.5668800504989496,0.4840309676109898,1.325886773319474,0.19755066468275162,0.0681298306163711
0.111662488527014,0.18681508129846466,0.2515210847043133,0.5644693680383874,0.48591590145667024,1.345937591526215,0.1934681071207924,0.06763982848364954
0.10942851351474045,0.17998399897929807,0.24404935533360173,0.5620463868804036,0.48753061228192573,1.3665789570839528,0.18938955329577956,0.06713256191997692
0.10727288999931028,0.17334286685727587,0.2368873422569366,0.5595805509441601,0.4888184245440201,1.3883670149275602,0.18532545275766069,0.0665958989992614
0.10516755041311839,0.16688315603037343,0.2300285008095157,0.5568554666612492,0.48970538334820685,1.4109233451557681,0.18128578700363435,0.06603163529291281
0.10313908598909077,0.16060990498889624,0.2235264516280471,0.5540120640354447,0.49024148178061466,1.4339119747035638,0.1772934520897926,0.06544820094435135
0.10125297390973867,0.15460798470359782,0.21757923172452395,0.5513457258989756,0.49062197013613973,1.4575058739094422,0.1734572208027847,0.06488710803271402
0.09953827875711836,0.14891820028746935,0.21218184382801392,0.5487978442263041,0.49090673095254966,1.481889969970113,0.16988098835576473,0.06438804310556634
0.09796246299399648,0.14347899295387231,0.2070949686078144,0.5462988716107615,0.49111302118664146,1.5067055146099666,0.16655022282514084,0.06394210651594896
0.09647421110325902,0.13824460902681826,0.2022297919283405,0.5439360126470395,0.49146468820814715,1.531154288016582,0.163430728946213,0.06353404811667476
0.09503103896831672,0.1332045151436573,0.1975947485120464,0.5417925509297069,0.49197513282672817,1.55420567400435,0.16048959348546593,0.06315592986105496
0.09360563706275572,0.12832839024587867,0.19315088268136213,0.5397005587371017,0.49239626800083636,1.5756039612682036,0.15766841748725466,0.06280681570957199
0.0922052952464782,0.12359375856925008,0.18888080492191775,0.5373923809120967,0.49277168393631016,1.596389849933432,0.15491790994077992,0.06247909634378751
0.09083696239495888,0.11902578613995748,0.18476771362241054,0.5348261528527275,0.49330358360738724,1.6172585384192777,0.15221091147790622,0.062152100554676494
0.08949388260018908,0.11465507041648702,0.18086893124297682,0.5320690536360702,0.4938643061164294,1.6377650660515923,0.14952140097154135,0.061826112591827756
0.08818294106915868,0.11045051517820316,0.17723239636464858,0.5292590727530134,0.49432502445830695,1.6575175879251447,0.14684452905603798,0.061508089333540954
0.08691737872977716,0.1063755291604019,0.17379673588442457,0.526541626140657,0.4947297553771641,1.6766167179624012,0.1442023887161776,0.061204677648347805
0.08569644538890349,0.10248190353328333,0.17058328126704514,0.5238350846713814,0.4950003096889497,1.6950189235457525,0.14160939337158304,0.060922221449769394
0.08448595059685747,0.09882568967546065,0.16771251177680863,0.5209142649999358,0.49511551319619995,1.7121416743754598,0.1390792826412941,0.06064002492040379
0.08326655152573734,0.09535998466061721,0.16511213353544787,0.5178113565966581,0.4951354932852544,1.7274156181005733,0.13665188217651772,0.060331605402145994
0.08205987023721047,0.09203973986704223,0.16257232820831435,0.514871565735713,0.4950710546804215,1.740913037016713,0.1343651877918708,0.06000508616319559
0.08087989094528539,0.08888189747524401,0.16015308912655077,0.5125519729449179,0.49506633315617554,1.7527582750511908,0.13221529257594686,0.05968162684679675
0.07973996438236888,0.08592256449413176,0.1580654630780097,0.510901411610744,0.4952190274982486,1.7627308840152263,0.13021169923476608,0.05935472080515237
0.07865282243876716,0.08319608720658495,0.15636391439064662,0.5095647898443441,0.4953148849966952,1.7707087208956134,0.12831655459754213,0.05902483342719502
0.07763059276346053,0.08072840857084364,0.15524725883109125,0.5084628958678901,0.4951356465406979,1.7768576864646974,0.12644005811966008,0.05870578466434506
0.07668481331373869,0.07851735048939687,0.15483156219111374,0.507566535220505,0.4948539027318141,1.7813649815323356,0.1245832110582968,0.05838403962317245
0.07583313279601686,0.07649372222462297,0.15482601249008468,0.5067539803379035,0.4947284463389951,1.7842775376946614,0.12282718363915415,0.0581068277773431
0.07508565616815524,0.07461790267902708,0.1551459320663806,0.5059488283039624,0.49459882986054127,1.7855949850128325,0.12117597589782253,0.0579259691414233
0.0743717172117507,0.07289196556732583,0.15593064530519402,0.5050044437498248,0.49421129295741395,1.7853251955541491,0.11955308139660208,0.057770591625178606
0.07364374608639945,0.07133780764872606,0.15729960142924934,0.5038274996397869,0.49359078995346545,1.7834972895330787,0.11794546463897579,0.05759293624089359
0.07293648515897315,0.06994946447135295,0.15915923020948744,0.5024158665132951,0.4928884487920375,1.7801606838311912,0.11642087330323211,0.05745431620505089
0.07228314702643515,0.06869432687634906,0.16109194216874978,0.5007610480714489,0.4921887353738933,1.7753774763156356,0.11508414657175808,0.05743340046345992
0.07168870511279377,0.0676012477648263,0.16291886066291764,0.4988551520131677,0.49141197958589267,1.7691950910020204,0.11396184083463384,0.057518408258902774
0.07111774412992383,0.06667092592318684,0.16471636480938529,0.49682459049007577,0.49044193213972787,1.761666927803627,0.11298554807104391,0.05763110897869255
0.07052967918443204,0.0658570709603711,0.16645725365541628,0.4948104604654305,0.4893079871615748,1.7528988529656724,0.1120963780091897,0.0577434465682167
0.06993250724497999,0.06510860570004251,0.16819579440987445,0.49270033118028644,0.4880317336954189,1.7430133870935858,0.11125797328299919,0.05784864239886149
0.06936063037017338,0.06439666732501126,0.17009755951563624,0.4903600065677103,0.48648018304919893,1.7320017721387297,0.11046225128974854,0.05792684740291382
0.06881350144013501,0.06370029797977586,0.17212687599304086,0.48778169164197366,0.4847537139532649,1.7198166021452794,0.10969475350531234,0.057979159000523674
0.06831731703482392,0.06301280743756801,0.17424281198211553,0.4850785070978402,0.48317583436091843,1.7065473833213718,0.10899511010435303,0.05806682550773187
0.06791714400589267,0.062367903357229554,0.17651979196588677,0.48241895196152207,0.4817884121397105,1.6923142086151117,0.10846133715806916,0.058261771389324535
0.06760251043929269,0.06177772960972924,0.17884164401921257,0.4797502102569948,0.4804240472806645,1.6772462547227935,0.10812685759491739,0.058592576241018796
0.06741680454212577,0.06124716354526136,0.18105708557572076,0.4769147947991007,0.47894933591991323,1.6615414362180454,0.1079432180509789,0.05906638866877316
0.06739471860394672,0.060854358510491424,0.1832154036559287,0.4739093141208074,0.47737049705045725,1.6452893925747365,0.1078037515536731,0.05962973497441883
0.06744224622156907,0.06064050882476159,0.18531699691770387,0.47089115122236824,0.47581392711379944,1.6284827928176904,0.10769998719665581,0.060258122607445834
0.06762986185650414,0.06060473015890595,0.18732218573403203,0.4680844075569339,0.47436039260268964,1.6112555649745464,0.10767058939890489,0.06098823416759455
0.06810507361296225,0.06086635187185284,0.18929339719312088,0.4655895806201693,0.4731137945374923,1.593803082684279,0.10764549530341325,0.061801572322564224
0.0687345776596138,0.06148574295305773,0.19124357665539482,0.463201631583838,0.472206748769009,1.5761118682102568,0.10758442638898205,0.0626335615371289
0.06938402814603911,0.06231303899565205,0.19313163959539975,0.46064409721981847,0.47143816858155196,1.557968681365075,0.10749569090126593,0.06344915830158243
0.07006530317858153,0.06321137338408135,0.19495177661037366,0.45790007240263825,0.47052196871108726,1.5392167866253952,0.10741400656699955,0.06426834542733638
0.07078304800603905,0.0642302794016332,0.1968522732763193,0.45518757508113067,0.4694587627446858,1.5199074259104637,0.1074327491880191,0.0651637215131798
0.0715349848483702,0.06540364948470838,0.19896152173287443,0.45256134156250033,0.46818910594288243,1.500177069955823,0.1075475364832639,0.0661645410092588
0.07231221594512621,0.06660997715849525,0.20118818260015214,0.4499466131043287,0.4665827906355555,1.480303756415815,0.10767385243475305,0.06717165214723259
0.07311289173397079,0.0677396903085515,0.20339797073869967,0.4475125629461058,0.4647629728248847,1.460647181824988,0.10777095837461037,0.06812363562662553
0.07394190634753735,0.06880839956272773,0.2055493702409507,0.4453606646596258,0.46308167112409526,1.4411500451326074,0.10780660014223675,0.06904202587592764
0.07477048410739688,0.06989795560519893,0.20767627119414478,0.4434272468492145,0.46162140672571,1.4214631994714424,0.10777004242644132,0.06992071013207898
0.07555772833377532,0.07104651633921744,0.20979105673627862,0.4415776486194112,0.46013997555824776,1.401486862160446,0.10769788781619791,0.07075387960383157
0.07629798924185831,0.07221029305084456,0.21198581502609343,0.43976321146947156,0.4585060085960459,1.3813866184044048,0.10763186860720864,0.0715427078244142
0.076992593879249,0.07334069927845924,0.21445553046724766,0.4381245641884777,0.4566474805250541,1.3611672003623165,0.1075584100065361,0.07226830227583025
0.07765622761144672,0.07445815170795589,0.21734633297962336,0.43693645967850203,0.45462274591474466,1.3406460428900586,0.10743779049751447,0.0729193384417711
0.07832971134896957,0.07557550634304278,0.22060370301113075,0.4364880199369053,0.45264824682082816,1.3197624669841006,0.1072588040619832,0.07349842781732956
0.07904539661194647,0.07672511846962118,0.22394112793634963,0.43641992303909827,0.4508707974365358,1.298592499502089,0.10702415991196522,0.07400813787165844
0.07979407257463277,0.07801145168486563,0.2271446422146056,0.43616077223260863,0.44926349285748046,1.2772091399467462,0.1067231313527718,0.07445767743659346
0.08052678110462194,0.07942063676612811,0.2301233689636241,0.4356856904407402,0.4475864825709136,1.2556423058223507,0.1063522078764849,0.07486928516105326
0.08125019465864337,0.08083899927837492,0.23285077108164545,0.4351048092035763,0.4456638940151298,1.234001023111166,0.10597495854948599,0.07524421204237225
0.08197739066083946,0.08225139915739806,0.2354019966218576,0.43438317125493925,0.4434748254846954,1.2124030237107524,0.10563882415915948,0.07556363226471896
0.08267407290785209,0.08370353361436327,0.23781566829586034,0.4335209041052674,0.4410730863504568,1.1908204764989274,0.10529554083881004,0.07582964956357706
0.0833876964920531,0.08521233184986605,0.24008206153467132,0.43256506717139914,0.438543782716457,1.1691866291487845,0.104905634947927,0.07607107162751535
0.08425055533007249,0.08676718886184202,0.2421920165512558,0.4315005915892843,0.4358948999481429,1.1474911673042993,0.10447150896127753,0.07633553587643394
0.08542916597905714,0.08836460198996204,0.24415698050280454,0.43036665584914574,0.4331341918423616,1.1257844579056064,0.10398881768844424,0.07664184352076461
0.08692872701522054,0.08996774993069798,0.24600141498305436,0.42922754676399183,0.43032267083784387,1.1041681776227519,0.1035002533307096,0.07695445070916905
0.08849983498913977,0.09150129023753402,0.2476819753968771,0.4279575557567664,0.4274786313287883,1.0827261254196854,0.10306671637577007,0.07723935211360279
0.09026489705818991,0.09305368467088931,0.24916404490999214,0.4264633072577275,0.4245794883719534,1.0614179432847684,0.10265949027069815,0.0775910800294769
0.09253470643461578,0.09486999546532704,0.2505083059967961,0.42479610499944065,0.42164380740642926,1.040104608461989,0.10223102311449837,0.07812673802603944
0.09510461653810552,0.09707740529094427,0.25178630904798094,0.4229784464021125,0.41872949808556487,1.0187534338999573,0.10178265162286122,0.07877764244728203
0.09771172470678886,0.0995765558586418,0.2529662697930473,0.4210453683950652,0.4158384452559614,0.9975003383918397,0.10132904554738344,0.07943118143428607
0.10032515363633868,0.10214509183944759,0.253997821980193,0.41899038103669245,0.4128788260450298,0.9770368596588592,0.10086418433741291,0.0800264359610119
0.1029220476884067,0.1047039727452034,0.25490647686433454,0.4167405345686417,0.4098163616942611,0.9581507545394586,0.1003756339852636,0.08055867822140884
0.10551399018075193,0.10731800725517476,0.2557501854952714,0.41433989870535826,0.4067320235848489,0.940497527522735,0.09985152368986502,0.08108362028412204
0.10817223943044879,0.11002907659197557,0.2565309556515408,0.4118976331725096,0.40375677313032965,0.9234790251752063,0.09928053284237441,0.08159438663669046
0.11086460380297665,0.11286377638503788,0.25726414053237784,0.40943796275646394,0.40120298204157506,0.9072713016905494,0.0987254235417647,0.08204429851202101
0.11348002620818516,0.11576719570846157,0.2580580754420009,0.407084365638914,0.3994425861068072,0.892028605930898,0.09833981850234125,0.08244893796904257
0.11595246569618889,0.11868674351898353,0.2588692381891386,0.4049013640535842,0.39846955065609474,0.8775431964275603,0.09821701328133307,0.08282993958946673
0.11831917856704115,0.12165233006544282,0.2595690638606808,0.40285022232386286,0.3981101942641417,0.8636290001890367,0.09826547467568507,0.083194648708157
0.12063596203370593,0.12468583540562225,0.26025531847759514,0.4011946287174745,0.3983181377684858,0.8501007928478322,0.09832393633624059,0.08356347909638959
0.12288269127547115,0.1278749827406228,0.2610415904734377,0.4000928273449772,0.39888800688322046,0.8367208529715271,0.09834510556817909,0.08395595343916971
0.12525413418786466,0.1314840536432375,0.2618224850530172,0.39925437798503965,0.39943579600170226,0.8233151341175511,0.09840412802139328,0.08449769847697633
0.12813705299099595,0.1356317204884303,0.2625038786371532,0.3985014969431511,0.3998081588386157,0.809844211278555,0.09852604556822116,0.08529536565439355
0.13147969373235766,0.14010336685293193,0.263102809239551,0.3978713083182807,0.40013270645724813,0.7964041547462478,0.09865451968235703,0.08623677412719558
0.13499809926867398,0.14484048096382146,0.2636289681230833,0.3972721713520901,0.40045131912604387,0.7831470037385186,0.09884262903909004,0.0872011073368733
0.1389419869237506,0.14994730036201603,0.26403820802726047,0.39653616622854615,0.4007238314310304,0.7701712121451929,0.09914777408974876,0.0881530082857349
0.14351638167802647,0.15573712641390522,0.2643552725884897,0.3955830338966733,0.4011525622556341,0.7575305680525788,0.09953114452455675,0.08911215609693161
0.14891010421154688,0.16282322600581553,0.26467746466071634,0.3945301053614463,0.40195763144600133,0.7453631159548615,0.099995656790366,0.09025783061436715
0.15570413599180252,0.1711691704950058,0.2649641346404058,0.393489709200599,0.40293470076137444,0.7338138165116411,0.10053733630456503,0.09173459694284021
0.164045016055621,0.18018396379972662,0.2651898056089481,0.392428875468604,0.40370093897848397,0.72294718864266,0.10113224884280071,0.09360018682143291
0.17350311590640297,0.18972954768955455,0.2653836543047623,0.39135620242859215,0.40427145424177274,0.7127173131704466,0.10175744888102756,0.09582253039188537
0.18359285302246214,0.19988061557123588,0.2655468764582786,0.3904136452077847,0.4050219286331196,0.7028055275324078,0.10247787618655045,0.0981299126619293
0.19392268220337025,0.2103001871916706,0.2657408189931555,0.38964994706306844,0.4060374206133276,0.6930671728733921,0.10341573013459232,0.10037600549492155
0.20404429607442567,0.22049851814379623,0.26595058776713004,0.3888040064808998,0.40743915218250815,0.6837715524465466,0.10459408649521705,0.10258136170757887
0.21386336777706555,0.2303215999504896,0.26608837510778555,0.3877331231257155,0.40951653939640953,0.6750554919694719,0.10593449674845218,0.10471887861635966
0.22358414361874177,0.24004369416706509,0.26626415130500564,0.3866821144480503,0.41199083485659704,0.6668955347436375,0.1072949054644438,0.1068563001732537
0.2333820311492457,0.2501211341172455,0.2667569058761327,0.38594531343168376,0.4145147898624277,0.6591951610345905,0.10859289874597042,0.10907848438164953
0.2432977077759742,0.2605755503356027,0.2674989007501535,0.38550977710121453,0.4170704377668118,0.6517078248567866,0.10982993580864647,0.1113729164371295
0.2535237464432249,0.2715008149222601,0.2681576627121754,0.3851288256884633,0.4198010249890937,0.6445852738730444,0.11100747130528067,0.11374761349441315
0.26439782889371766,0.2832938199575991,0.26860913963715144,0.38457313247694475,0.42296375126773833,0.6382397473396237,0.11210021030320474,0.11626365445457215
0.2755871133120001,0.2955578016225206,0.2688351596819612,0.3837371663686704,0.42655015592598206,0.6324898278863194,0.11319101422645449,0.1188723522293567
0.28668600025295027,0.3078058080305929,0.268825244303355,0.3826205421569567,0.4303845880689023,0.6268939686884225,0.11445943482658257,0.12151367412984121
0.29808886004008917,0.32052815529989487,0.2686230857308051,0.3813969971400452,0.4344525674343082,0.6212904143991784,0.11588315704837246,0.12431737148659507
0.31048687149100607,0.33399950159662806,0.2684779276671555,0.3802996813986077,0.4385327529655334,0.6156447935682344,0.11730028059601619,0.1273605986722363
0.32354400940997885,0.34757255657839753,0.2686615573406416,0.3794044003104895,0.44227969140729906,0.6099777566478248,0.11878995553100342,0.13056983497205338
0.33684461131831245,0.36132339979914135,0.2690659062042374,0.3787032385292082,0.44563738748148113,0.6049643008795181,0.12071531832864246,0.13382779266107442
0.3510672814688278,0.376340898061913,0.2695004714784765,0.37800123055427637,0.448806721305052,0.6019247409841322,0.12327621326807954,0.13695537432880364
0.3662986241221872,0.39273602952097064,0.2700170081573571,0.3771051982318664,0.45201345510609775,0.6016587791523489,0.12620854168323292,0.13986162279922054
0.38178476195923067,0.4094703214522718,0.27067162896909963,0.37602443820882386,0.45510577673102814,0.6039792822372186,0.12917240566588145,0.142613524189182
0.39703834080402833,0.4257841102956794,0.2714777591527663,0.37479476529329003,0.4582394496184851,0.6085376032898884,0.1321435155121987,0.14524855884086008
0.4116936989344156,0.44161306010571416,0.27298297059484683,0.37397877205686075,0.4618108086820887,0.6146838459608215,0.13521897723877402,0.14769571589961408
0.42572925423934427,0.4573239998869805,0.2755565878571151,0.37422117875133043,0.46561686500856,0.6210660539676808,0.13836454311789198,0.1499942270316206
0.439472630482582,0.473027237186131,0.2785947630933457,0.375268492600233,0.46947659615955745,0.62734688571092,0.1415273281586504,0.15227536590526652
0.45284971084347386,0.4883268468647757,0.28209443302003423,0.3768841455588416,0.4736981831451926,0.6339325260907767,0.14467678679585222,0.15449756943612444
0.4661108787801573,0.5028779286828551,0.2866205280313522,0.3792692023300332,0.47866298261707124,0.6405025032924178,0.14771685418660627,0.15658102189205286
0.48018440218919023,0.5169664009339335,0.29174297442457503,0.3823210652912489,0.4842536726461147,0.6466098821126215,0.15058248953975825,0.15856317121495883
0.4951283672657901,0.5310600962439413,0.2967756880597775,0.38566682745663283,0.4900164417641586,0.652168579779547,0.15337879575443944,0.1605802251107567
0.5101216356438113,0.5448309412295402,0.3016441641332175,0.389183511661079,0.49551703334962094,0.6575046272816172,0.15621306123120146,0.16269557895964395
0.5248734656191066,0.5579520591535656,0.30643107105222517,0.3927533198606269,0.5008350756995458,0.6629167305453931,0.1590140405561422,0.164889546859597
0.539433594899549,0.570532620521235,0.31104841465527144,0.3960963729397706,0.5066419629164771,0.6689780374373083,0.1617002446064793,0.16721008203011722
0.5538430988957331,0.5827377471491455,0.31573311418509314,0.3992259832920718,0.5131448538157035,0.6765972036838482,0.16427406773505387,0.16966281590259352
0.5682951903963573,0.5952673100108405,0.32095242256654055,0.4023289256765125,0.519939497031835,0.6859264970669956,0.16689168568687773,0.17223963564940883
0.5831618514732109,0.6090645771578936,0.3267984159297951,0.4056708014578339,0.526973224516584,0.696782305599005,0.16996988326795426,0.17500620669520672
0.5986781518097566,0.6239140474504926,0.33308443997063375,0.40950543926700217,0.5345029800514653,0.7085663075299599,0.17364613647703595,0.1779582981524742
0.6142994339133316,0.6386257335417678,0.33936408870731943,0.4135469711681413,0.5426269717112844,0.720477963421028,0.17752317934940465,0.18092453503077202
0.6292505414927618,0.6526766013631277,0.3456182046786524,0.41732117362747984,0.5511510700836838,0.7329414989302333,0.18133447700947047,0.1838880670013696
0.6433455849041856,0.6660283147975358,0.3521293555230401,0.42067555714857563,0.5598758237210563,0.7464156592567724,0.18499228953384808,0.18702667127049002
0.6567351908126723,0.6784710438558433,0.358639390999971,0.4238524495166747,0.5688643211400717,0.7606429392952186,0.18840615207960643,0.1903163378092382
0.669737956064874,0.6900924505834367,0.36483452066466154,0.42730445568556247,0.5779159024229675,0.7760047767658965,0.19161679972018547,0.19365372268557995
0.6830802210409126,0.701572230408702,0.370762563888408,0.4309494279877618,0.5869990295903104,0.7927780207614699,0.19477036878983983,0.19713381951601366
0.6967610950419976,0.7134470172068903,0.37667009846770305,0.43468854443248295,0.5960835047317644,0.8099624815745433,0.19792646873098896,0.20095433133074198
0.7100439442144861,0.7255678339036015,0.3825656841934111,0.4387280545156931,0.6047526555853677,0.8269888224019998,0.20102845491498145,0.20518369388957666
0.7227126050239254,0.737858799435652,0.38815665247869136,0.44273676450020516,0.6128423262979347,0.8446297333463136,0.20405562629457677,0.2095526765592613
0.7348149668255254,0.7508087861322135,0.3933104381173786,0.4464781342962814,0.6209916826204834,0.8631690880288208,0.20707517104674367,0.21384372941059188
0.7467717980368581,0.7651187938805611,0.3982951300662897,0.4503345829039217,0.6303870489442052,0.8819682668131285,0.21015136496032003,0.21821655914869928
0.7588520034446293,0.7803481782885004,0.4034609337290077,0.45451133679862593,0.6410454390784323,0.9004161512807566,0.21325203258549205,0.2226901341792086
0.7708580382303788,0.7951585804317322,0.4087348178151675,0.4587497499516158,0.6519455852135334,0.9182293870616774,0.21630625734652517,0.2269749474567571
0.7826812452039226,0.8091193222213608,0.41395321700300164,0.4630965385939042,0.6629795407230233,0.9355052735158119,0.21917270378336895,0.2310884370676015
0.7938835678184256,0.8223073362002784,0.41929402519265047,0.4678704083311773,0.674451763962362,0.9522170533325034,0.2217564753683057,0.23521459755857266
0.8039997835992783,0.8346364948258268,0.42486711390399834,0.4729479016104019,0.6856769102215411,0.9681591558224969,0.22408073355282107,0.2392151756722179
0.8131208118286631,0.8461522756405014,0.43048985976436543,0.4782774923021982,0.6960999452012054,0.9832292900752888,0.22618125572879244,0.2429981630960059
0.8214950444605863,0.8574338414959709,0.43590061019673915,0.48398348483713266,0.7060866465947379,0.997096443801899,0.22816602603261713,0.2466562806922382
0.8292270811485521,0.8689351237630945,0.4410298085131069,0.4897832611915693,0.7158402270028027,1.0097326467196295,0.23021867920791522,0.25024491079855704
0.8364042241206046,0.8804415779500067,0.4459582835151827,0.49523924548621445,0.7252744831429045,1.021607093042624,0.23240782910458474,0.2537234927675338
0.84328435229317,0.891687804299221,0.45076354526767903,0.5004012259801771,0.7343273239599195,1.0327815376164626,0.2345983974636447,0.25701990504208627
0.8507027888266504,0.902446931400919,0.4555064825791038,0.5057316403167662,0.742959782742294,1.0428543966192079,0.23662105893632826,0.26011213775507824
0.8589097888657142,0.9125692766473514,0.4600581917084201,0.5113784857049666,0.7516230666331067,1.0522449155933664,0.2384744714338626,0.26303282226277824
0.8671611358194582,0.9219991942627277,0.464596423152389,0.5169347742053019,0.7604879930005402,1.0620969208773727,0.24021100222196462,0.2658868829971214
0.8750992667694617,0.9308913897052806,0.4695987699271946,0.5219912336423125,0.7690692238929674,1.07297589640925,0.24182736808618588,0.2687279474019748
0.882669955585452,0.9396551168509046,0.4748864568949092,0.5265647030604984,0.7771501665550299,1.0852011243130517,0.24346763549126163,0.27153377952119034
0.890095811467292,0.9483744150439529,0.48001407823013986,0.5309592520656715,0.7850523139300241,1.0983345712547126,0.2452227855486049,0.2746976728630302
0.8977704304263129,0.9567084993700355,0.48516416016746583,0.5353255042156906,0.7932237657123873,1.1109868990398883,0.24689223872491858,0.2785353105732668
0.9058895433114619,0.964759667138926,0.4905781348795423,0.539459895225633,0.8016315579990605,1.1228258166616811,0.2485182230659319,0.28263929577221114
0.9142722186201039,0.9726594731040213,0.4959584976353457,0.5431879886755643,0.8105247412794271,1.1347979038876796,0.25032169427005746,0.2866664800882744
0.9222436864539412,0.9799655951606469,0.501241341102664,0.5468313954179906,0.8201878762892185,1.1476212703260709,0.2521327353749003,0.29049596584135173
0.9292926160111352,0.9864360268224411,0.5070208527818374,0.5511792207382193,0.829795917981751,1.161507294581556,0.2536952027182648,0.2940858454809767
0.9356996724250887,0.9924752507647217,0.5133902167232216,0.5564640938125189,0.8386600172360383,1.1764699368774345,0.2550986213891508,0.29750992514963026
0.9419612662828674,0.9987982003894612,0.519689171211984,0.5619582244600267,0.8472786480773546,1.192227329388625,0.2565223829547038,0.3007319884491654
0.9480776736830119,1.0055001028376498,0.5256806863503419,0.5670655368727502,0.8563093804284841,1.2083419370951871,0.25787731143267884,0.30371090189271854
0.9537751747741564,1.012016457667862,0.5313923957590099,0.5720185464515444,0.8654447772029309,1.2244751252218034,0.2591049163716965,0.30642761211164427
0.958712117540916,1.0180882847609365,0.5366905394382435,0.5771935902476623,0.8740831064621949,1.2402962709231429,0.2602764051518598,0.3089042625920019
0.9626894643076954,1.0238360149626835,0.5415812884603399,0.5822484115426333,0.8820303645987788,1.255422560722797,0.2613329117901449,0.3112090679867322
0.965945654338502,1.0291612079993535,0.5461311126263338,0.5867153378667721,0.8891618194610903,1.2696556365032843,0.26220486750236094,0.3133405849547682
0.9688298086089777,1.0338163324369183,0.5502768892165276,0.5905487449003008,0.8954458643081603,1.2828868538525278,0.26288607846735546,0.31528422826796876
0.9712282768297921,1.0378059549051157,0.5540254882161539,0.593772462152544,0.9011405800603114,1.2948193642053574,0.26335074631412014,0.31711983125664023
0.9730595602508237,1.0411551439468696,0.5576045010025482,0.5964633598397023,0.9066070625700092,1.305203902533346,0.26358108878671216,0.3189104903858121
0.9745003155962428,1.0438884970160034,0.5610512716312861,0.5987957713964625,0.9117764069791945,1.3141378281252434,0.2636004383317223,0.3206163142583741
0.9754257177860312,1.0461437984222326,0.5642077563237473,0.6008632549672707,0.91636903911685,1.3217758434543994,0.2634580609701837,0.32223265668442497
0.975723549673963,1.047886157550495,0.5670166629134591,0.6026953851873462,0.9203989009305616,1.3280465428253305,0.2632279817565715,0.3237685316773119
0.9755411427950108,1.0490358935376103,0.5695572435882478,0.6042605051183328,0.9239467313624201,1.3329498031693214,0.2629209199718856,0.32512566395435644
0.9751201791493649,1.0495574760224653,0.5719122515329237,0.6056088227471648,0.9268829615289823,1.336660661748671,0.2624803438568949,0.3261834776634634
0.9747254982080958,1.0494308970132307,0.5740607336295858,0.6069690942769559,0.9290240700078483,1.339213981454711,0.2618790510309316,0.3269004712043445
0.9743630248149115,1.0486242718421195,0.576083136005505,0.6086470408704129,0.9303557410816518,1.340490450750284,0.2611379780695264,0.3273175069735444
0.9737174694483081,1.0472281051475705,0.578069902525238,0.6108010723945954,0.9309051783265101,1.340457407106329,0.2602906585787027,0.32748733313646505
0.9724942031619483,1.0455033725416703,0.5799738620167534,0.6130808086156447,0.9307325881187136,1.339178474996434,0.25938264339978817,0.3274339004656915
0.9707128261798501,1.0434392735936568,0.5816429978723148,0.6151844039473492,0.9299430592372405,1.3367090308801568,0.2584441905915388,0.3272271361424609
0.9685464027379549,1.0408051683695503,0.5829388122284501,0.6171910274336941,0.9285307340377021,1.3330965081689536,0.25743072719871635,0.32690733278514966
0.9660070711292401,1.0374879652699598,0.5839030210555005,0.61912301371005,0.9264304371102041,1.328427498286928,0.256353177293937,0.3263994799545878
0.9629195954640818,1.0334603781777756,0.5846761369572591,0.6209416253008071,0.9236674069252391,1.3228326513632158,0.2552487959178012,0.3256654382100075
0.9592305453789384,1.0288574554601164,0.5854061227726712,0.622569801849783,0.9203466564585758,1.3163776602019657,0.2540863855064384,0.32474248937707506
0.9549696246288891,1.023969395127888,0.5860406603888332,0.6239139577510098,0.916569173651485,1.3090660196666546,0.25296319337948964,0.3237132792071358
0.9501457403952284,1.0188199932780269,0.5862824170914654,0.6249249642135688,0.9123851971475121,1.3009219576495896,0.2519989467994433,0.3226502786054253
0.9448281298785268,1.0131313962886233,0.585974393486568,0.6255360911752648,0.9077228276725773,1.291969452837781,0.25106732232113843,0.32146906483525134
0.9389965807425108,1.0068456101716399,0.585214323877764,0.6257173242459404,0.9025672399217631,1.2829141897153753,0.2500073388324841,0.3200622541723694
0.9326790568586902,1.000115002271036,0.5840894458625917,0.6255005419729132,0.8970718778677969,1.2752068562006946,0.2487921679198596,0.3184276365059722
0.9261300985100674,0.9929921446952041,0.5825498391296731,0.6248831920667306,0.8913036139531616,1.269037011516633,0.24748990021544995,0.31661680533482894
0.9194530029929318,0.9857884558656739,0.5805949547939594,0.6238431620111143,0.8852731904260224,1.2633475914750003,0.24615906551515188,0.3146792822168321
0.9125193799501836,0.9790024777660725,0.5783717597381456,0.6224065099681761,0.8789911358143122,1.258343847845948,0.24476207434670122,0.3126224432731566
0.9054473604077891,0.9724955765239267,0.5759876634706863,0.6205584288964587,0.8723273590115631,1.2550304513870116,0.24330315033281863,0.3104334014152517
0.8982965878314669,0.9659610385465043,0.5733717284097776,0.6182717805142753,0.8652045923999467,1.2531031363025606,0.2418265090701896,0.30809327125938923
0.8908099499874154,0.9595868942661144,0.5705098111188398,0.6158486410317427,0.8577766916945319,1.251313429453957,0.2403477179965204,0.3055908199314421
0.8829022949502017,0.9534726167041547,0.5674889095753705,0.6136182070357904,0.8502512947814657,1.2488681361518637,0.2390621908833261,0.3029488891781546
0.8746931562735942,0.9474122373289695,0.5643322210464622,0.6116010014127481,0.8427535649985202,1.2463396688336792,0.23822352249547837,0.3002028346947107
0.86625704836093,0.9412086862087836,0.5610954955956599,0.6097495897999197,0.8354767453297173,1.2448439513982739,0.23769944245600994,0.29734646054771624
0.8576387228012663,0.93476719892774,0.5577385345062253,0.6077576868824298,0.8285920959465433,1.2440767961407597,0.2372561493909462,0.2943739465628591
0.8488410466387722,0.9279238133996811,0.5542497458462761,0.6056533788134716,0.8219287583604382,1.2428907287247088,0.23693067629143352,0.291286523568953
0.8398000759365332,0.9206624857720623,0.550711772055808,0.603744449819367,0.8151559364485502,1.2413117845589556,0.23672490331259155,0.2880787938906884
0.8305417978152804,0.9131755374741082,0.5471234802735773,0.6018103018603466,0.8082782407704362,1.2404951731971074,0.2365736538006328,0.28477245438088744
0.8211247096581931,0.9054331996425258,0.5435239511720047,0.5997469228900378,0.8017548276584685,1.2412309272042201,0.2364747043878961,0.2814150980449973
0.8115246886384616,0.8973403840802263,0.5398436027037647,0.5976154085069755,0.7960780457948538,1.2434308183026626,0.2363991340171163,0.2780389270166256
0.8017455806452282,0.8889201343579245,0.5359156653152581,0.5953405460170965,0.7912901297644703,1.2467349146404931,0.23639280135846877,0.27462127457427077
0.7917644935198996,0.8802014947284059,0.5317480045294821,0.592957504853271,0.7870160914921818,1.2506908843747369,0.23644601775517038,0.27114718501061674
0.7815196091860274,0.8712259072727189,0.5274352929042511,0.5904866586454347,0.7828298828483122,1.2546113567416342,0.23640905305598522,0.26762915084142186
0.771012224220168,0.861973087630859,0.5229813115095285,0.5878606630267543,0.7784709763858157,1.257959213028743,0.23618557257467399,0.26405910626691653
0.7602839480069089,0.8523837848516507,0.5183831275366821,0.5850018780475544,0.7738441098967208,1.2605020386265162,0.23575715354096677,0.26044944407249787
0.749388166904656,0.8425153088858822,0.5136715046152738,0.5819231798520865,0.7688651055708354,1.2620450398322096,0.23514648735042382,0.2568388005635354
0.738356051149803,0.8325029801782199,0.5088224913855346,0.5787240147507746,0.7634805274393112,1.26248977063178,0.23439551312441603,0.25321064636785184
0.7271573744699714,0.8223493443962026,0.5037932521048764,0.5754528221071046,0.7577800582567225,1.2620038756346703,0.2335578548310351,0.24952912946203015
0.7157834427818343,0.8119566836928079,0.4985897881903645,0.572229551321503,0.7519567637338227,1.2614372659686977,0.23265146005508033,0.24581349497123184
0.7042795966456494,0.8013053029382897,0.49323806632474604,0.5690819755650697,0.7460617191525158,1.2614291618658677,0.2316735049435538,0.24208218463658523
0.6926692738492969,0.7904167283834019,0.4877363240912151,0.5657691498444799,0.7398964692174755,1.261935242689318,0.23062804339880996,0.23831273819810822
0.6809549385945519,0.7793117798226629,0.4821097643127937,0.5622479660043358,0.733398476765669,1.2635945847241583,0.22946553069550624,0.23450376611655177
0.6691323624612874,0.7680306390565971,0.4764093589104286,0.5586779689920023,0.7267890535850055,1.2670173789496006,0.22817211791606126,0.23068740716714484
0.6571976052806314,0.7565784820640153,0.4706170765045712,0.5550580406986717,0.7201663404255424,1.2721771753605153,0.2267948579289117,0.22686098085292883
0.6451737502291882,0.7449403671375393,0.46470238608622977,0.5513737879016104,0.7133434159576971,1.278451946488074,0.22534541003622727,0.22300856097259658
0.6331498229333308,0.7332024707241536,0.45876323471769515,0.5477117942680056,0.7062486503232139,1.284817718388129,0.2238149387001531,0.21915505423899578
0.6212176663169059,0.7215275521416835,0.45296019619896993,0.5440345121927842,0.6990344253662126,1.2911975312136161,0.22218169865750081,0.2153242860600911
0.6093848120994773,0.7099642617189923,0.4473263878001801,0.5402659247868908,0.6918065005815854,1.298366872130263,0.22043836073919237,0.2115122807100081
0.5976383109672015,0.69843868067604,0.4418799523474746,0.5367345639739564,0.6847195404048714,1.3070533943353762,0.21865825201710518,0.20774196093556757
0.585952321059123,0.6869068098817839,0.43664474930400127,0.5336875963194733,0.677994897527125,1.3173231854621796,0.21690486258388053,0.2040485850088154
0.5742820072243943,0.6753733699970206,0.43146287659503296,0.5308662191812985,0.6715163439179193,1.328870205195236,0.2151653521947933,0.20041231708938698
0.5626178973194628,0.6638228201924062,0.4261966144107361,0.528163063772418,0.6651256631272138,1.341507454789646,0.21345416901219472,0.19679407033304133
0.5510044124689712,0.6523339148624685,0.42100180523876846,0.5258029247761219,0.6592999090642226,1.3549680918272076,0.2118118498028882,0.1931965547926711
0.5394706226352499,0.6410755298695119,0.4160207642877614,0.523793232386273,0.6543811980079854,1.3691498518974559,0.2102503594544737,0.1896357146458572
0.5279773980250398,0.6300819466703087,0.4110618041379251,0.5218332016833217,0.6498869029781668,1.3842484004093263,0.20872757723625807,0.1860866500622201
0.5165073279813356,0.6192653541517116,0.40596160394482256,0.5197821618004808,0.6453014728088601,1.4000689153854438,0.20718311759698205,0.1825322178520541
0.5050704799125976,0.6085081565047783,0.4007245394451928,0.5175323865897914,0.6404928898013859,1.4155885998146356,0.20558598386418245,0.17899614071262107
0.4936898235693199,0.5979318192551929,0.3953816721726786,0.5150010810143424,0.635502237554334,1.4298293941162092,0.2039132631744431,0.1754877208110374
0.482407334133998,0.5877392722781722,0.38998287384913,0.5122630967500669,0.6303355603296541,1.4428799272539905,0.20216316920997138,0.17200245746684764
0.47122295220326277,0.577789958630365,0.3845692169984356,0.5093634884127624,0.6249453220356185,1.4552607128435109,0.20039424156604255,0.1685560810888783
0.46011646837622616,0.5678890210428542,0.37918000362855925,0.5063321368397082,0.6192996400665173,1.4666813489016732,0.19864912219676878,0.16515022904904667
0.44908853413504846,0.5579770564519885,0.3737792587324782,0.5032445532255554,0.6134886111066463,1.4766175999076507,0.19688165960445642,0.16177305653315371
0.4381463827704021,0.5480507415118941,0.36835932559424467,0.500233195201805,0.607645377880627,1.4851511227786571,0.1950544153909263,0.15843994958740698
0.42729016446870116,0.5381135971055823,0.3629931302053981,0.4972842856502883,0.6016766918241524,1.4929898598566311,0.1931717515333517,0.1551455252320817
0.416519939926921,0.5281690015665914,0.35765008826945727,0.4942374948745376,0.5955068496376845,1.501373279831613,0.19123789395754512,0.15186453920395368
0.4058423701370258,0.5182603093369678,0.3522741784012613,0.4909863566943304,0.5892775825448043,1.5110719336277272,0.1892636203245335,0.1485995751053998
0.3952637371765072,0.5083888404468752,0.34686533306413586,0.48756294792549143,0.5831111481138583,1.5216983767881958,0.18725927895694414,0.14536646070507525
0.38479664056381374,0.49854244971777084,0.3414101475451063,0.48405160539278147,0.5769706534424954,1.5321389651363704,0.18522811155168323,0.14217361925200403
0.3744730824698517,0.4887496112694245,0.3359292741599545,0.4804194246265979,0.5707672961819215,1.5420373399475165,0.18316655887811037,0.13902238311666987
0.3643235357915548,0.47903082418559095,0.33044917850488775,0.47685568421299884,0.5644563094216268,1.5521897642141251,0.18109798952828057,0.1359273585106438
0.3543502373722909,0.46937888142676276,0.3250419770067686,0.47388235497317327,0.558168810373628,1.5628094047580832,0.17909156503432064,0.1329158345528867
0.3445484707398453,0.45981356842752175,0.3198969289776356,0.4716638570838905,0.5520368816562187,1.5731904241236978,0.17715320783824695,0.12999377600059514
0.3349001868712601,0.4503670990929881,0.3150142953612799,0.4698218605524309,0.5460463108324337,1.5826177726047344,0.1752149718042928,0.12712668630653742
0.325381286955797,0.44103674292370043,0.31018680783897085,0.46791388127884664,0.5401699947052496,1.5907293204336488,0.17326535100213208,0.12429488685596193
0.31599533833306087,0.43181977597781246,0.3054501603661215,0.4662321246910066,0.5347964267343038,1.5977348791868227,0.17132009431471576,0.12151294989461153
0.30675231091734734,0.4226733674910461,0.30091863951953857,0.4654570368883056,0.530758063346508,1.6040702189578608,0.16934746034415418,0.11877470841051757
0.29766160338582487,0.41356316580112573,0.29654090446542963,0.46579734597990013,0.5283952515363098,1.6097917784040532,0.16733048539632223,0.11608090715632795
0.2887454308368666,0.40451645067467545,0.292281068891803,0.4671039630586452,0.5276307731822322,1.6149474501777392,0.16529310149012805,0.11344558752456187
0.2800115025716649,0.39554588319944023,0.2881180640577134,0.46896590699867,0.5281819581110007,1.6200181790405255,0.1632582203504715,0.11085538044358834
0.27145364502000807,0.3867103024221558,0.2840918168956409,0.47155782637252064,0.5295832570966742,1.6250562484670001,0.1612477556266621,0.10831082616747825
0.26306578290730837,0.3780792320481548,0.28020695745884056,0.4750260175607368,0.5317830025347415,1.6296369986704815,0.15926258724644982,0.1058324552604112
0.25484194084832607,0.3696454316008011,0.27633405901174996,0.4785869117844982,0.534777802934735,1.633963087357066,0.15730353247715392,0.10340641243718392
0.24678293072934335,0.36138172693399123,0.2724295391310617,0.4820525219326174,0.5382560927223909,1.6386498264445915,0.15537803381378046,0.10101270803877782
0.23888268406618354,0.35323521675690245,0.2685319713035693,0.485664337224446,0.5418993211772386,1.643837481544489,0.15344637625257132,0.09867230558744657
0.2311352428126946,0.345188615301241,0.2646515022258027,0.48927879806184893,0.5456834314582898,1.648830680923988,0.15150400637456654,0.09639852019406539
0.22355481817606657,0.33726540724402526,0.26079782114841316,0.49290567185610945,0.5497524249876281,1.652897599342425,0.14957332279429128,0.09416390830435563
0.21615484255278536,0.3294745656678091,0.25695342658415665,0.49646068622078054,0.5538492990838083,1.6560611913063472,0.14764230971173295,0.09195555304878247
0.20891456063403654,0.32181117401828635,0.2530881967222545,0.49967609359713905,0.5576747049069799,1.6583242280454618,0.14569947380748483,0.08979450329909157
0.20182733679462672,0.31424366253517344,0.249180024804377,0.5025635477856613,0.5613838372761725,1.6595498247535894,0.14373383263372616,0.08768747564171143
0.19491341981800708,0.30676179866015363,0.24523455002503008,0.5052949756728563,0.5650918292980329,1.6602164685443104,0.14176164683305365,0.08565421453832447
0.18815858146250214,0.29936239777111834,0.2412772603960265,0.5079881817892609,0.5687282911567019,1.661303897297093,0.13980516269288376,0.08371353521199787
0.18154237225910552,0.2920222761627414,0.23729911794965175,0.5107358303518709,0.5725535727298366,1.6636017758529593,0.1378455288749499,0.08181648632213104
0.17506515542238457,0.28473257228622156,0.2332981835612495,0.5137535392995372,0.57674298225761,1.6670084823795537,0.1358513443833624,0.07993625951344786
0.1687472020571098,0.27751819077871,0.22929936819413707,0.5173141554235879,0.5807952627718032,1.671037955312678,0.1338594656919868,0.0781140547240341
0.16263449241822484,0.2704296251110277,0.22537329990598595,0.5212970450684267,0.5842578162950517,1.6757327868104852,0.1319653189890387,0.07638922547758076
0.15673069475324855,0.26347493730135835,0.22160083919437262,0.5255128636998823,0.5871328694573072,1.6815141751575418,0.13021328755841588,0.07477926326601446
0.151012372393388,0.25664833786339575,0.21797226695473543,0.5302549728673244,0.5896838715331343,1.6880819407229823,0.12857882920499672,0.07328741666024736
0.1454769859391724,0.25000433882677703,0.21441797393662146,0.5354624939444109,0.5920829046611085,1.6947136023626372,0.12702498282963576,0.07188993521058241
0.14012192973115103,0.24356147726898422,0.21091141986470363,0.5406354715670136,0.5941136202527889,1.7018078241446866,0.12555643142581638,0.07056400947101028
0.13493785129076127,0.23727043098741227,0.2074873453048423,0.5456901812370876,0.5956830882415246,1.7100062513019465,0.12416420022619959,0.06930780999014811
0.12990226758735893,0.2310905605272297,0.20416552958863352,0.5505934526746351,0.5968900689808914,1.719346587428133,0.12277945720424747,0.06811283354744528
0.12499352925795856,0.22499625705002843,0.20089793424480304,0.5552468437205786,0.5977692074335993,1.7298704811712902,0.12138315596989013,0.06695751542582723
0.12020417718847025,0.21898299983633845,0.19763855603111424,0.55956311734787,0.598387389301186,1.7411285539803996,0.119990518748587,0.06581450378981701
0.11556039092138674,0.2130597582838309,0.19438349862886117,0.5634056653621281,0.5988489613403087,1.751887932343693,0.11857598700160353,0.06467768139545618
0.11110044370632866,0.20722165320046285,0.19118920445486012,0.5672526952378968,0.5992739448404443,1.761277354247884,0.11712850591638968,0.06356124871883541
0.10681396641431079,0.2014773071404001,0.18812297639127368,0.5717488357001171,0.5996434616480902,1.76920019708507,0.11567764861725886,0.06247208349644619
0.10265744327570438,0.19583487743495043,0.18512872177017886,0.5766342156114926,0.5998459041764141,1.7759732962020078,0.1142450203946419,0.06141005230450602
0.09860249600208866,0.19028869662576609,0.18214603006486382,0.581432558652155,0.5998014200101167,1.782522622185812,0.1128445840993245,0.0603750013211643
0.09464193931854256,0.18486668038995868,0.17921070816277873,0.5860761550890117,0.5995074107138518,1.789620461164441,0.11148297877453499,0.059360071407287676
0.09078218097597385,0.17958872546482665,0.17635027522902208,0.5903867257825439,0.5991622102956597,1.7973899012144219,0.11011302983310792,0.058358682071103084
0.08704931081606179,0.17443360914174277,0.17353080865912693,0.5941606306935734,0.598962269272675,1.8061686695558088,0.10870299268551747,0.05737121166639773
0.08350159218016595,0.16937422642599378,0.17069976258745448,0.597417547879548,0.5988145508320468,1.8161317515920752,0.10726265667286389,0.05641138057554372
0.08017451988461845,0.1643912437357399,0.1678603734109304,0.6002102291512726,0.5985698371938848,1.827050913830539,0.10580141497909482,0.055492286259544436
0.07702160180182853,0.15949952366690245,0.16502911684759386,0.6025294085226484,0.59814566226439,1.8387470336574423,0.10436170254874344,0.05459298791241959
0.07399151209221609,0.15474662460411295,0.16218831501910752,0.6045070848461821,0.5975435483311782,1.8503994848142415,0.10298408947453586,0.05368674967273788
0.07108183844454602,0.1501511603800521,0.15936118320294757,0.6063300240762534,0.59683866881319,1.8613503777306168,0.10167389309843408,0.052774748037914175
0.06828347116959085,0.14567061035807047,0.15662340226161664,0.608070050127984,0.5959425666830934,1.8724085697491055,0.10044282055789204,0.05187817180573606
0.06556753113008941,0.14127087670387448,0.1540205341664264,0.6097023424025615,0.5947908714064165,1.8844212101510676,0.09930199385219649,0.05101058814035317
0.06292637245410934,0.13695938105151065,0.15153585709587525,0.6109759404823059,0.5933623722392013,1.8972483072770587,0.09824859262455005,0.05015820281978806
0.06037266719700193,0.13273645137578968,0.14911314606658357,0.6117447394210185,0.5916036176442111,1.9103740672982126,0.09724640490604723,0.049307806395203595
0.05791845230248576,0.1286090018482882,0.14671193151026826,0.612070049432015,0.5895373432276404,1.923057442245812,0.09623399910686252,0.04847350534827182
0.055588517489651955,0.12459023995025986,0.14432022558040344,0.6119708288475427,0.587172221572303,1.9346769318698371,0.09521279668041917,0.047675463559918675
0.05338639736061562,0.12068600832926411,0.14192655219822764,0.6114856798600674,0.5845368947628249,1.9452876087016346,0.09423765343474216,0.046912875794502415
0.05126854784074254,0.1168950992070581,0.13953330780090986,0.6107989907331288,0.581719194657277,1.9551303326832556,0.093327567108193,0.046171565672075025
0.049206607671185267,0.11320956193121384,0.13722970167499637,0.6100204719269354,0.5787097089758462,1.9640217091216894,0.09245384537995059,0.0454379523238347
0.04722688172538401,0.10963506153392256,0.1350876079510975,0.6089810308242026,0.5754929336643876,1.9714796775577188,0.09157563577597985,0.04471240953315291
0.04534776643695708,0.10615685180444763,0.1330753321322609,0.6077398113417327,0.5722414452589175,1.977452353174191,0.09068060926990991,0.044001973002686545
0.04355333189425763,0.10275404843151546,0.13118248957937678,0.6065006730144863,0.5690267509089257,1.9820185729615556,0.08983722029491285,0.043313358105191456
0.04185500250375499,0.09943334567579258,0.12935891590150458,0.6051510604916387,0.5658169254915956,1.9850077254845064,0.08910421269928216,0.042673025183053
0.04027698533411253,0.09619438167293598,0.12763010528861868,0.6036636477696271,0.5627820051562777,1.9864988303604976,0.0884173237988498,0.042086180233856935
0.038815575533434635,0.0930300454162011,0.12606715423824796,0.6021060327278678,0.5599708068262519,1.9864418864455944,0.08770835305063668,0.04152432161172424
0.03746711667209341,0.08996689263944983,0.12463093426238252,0.6005429434663222,0.5572091735446845,1.9846702128294755,0.08699900237902021,0.04098021998724929
0.03622131621437955,0.08703022737578892,0.12332401062734778,0.5990363005247112,0.5543839563570635,1.9812734077068597,0.08632340289761331,0.040467000910290124
0.035041485973626815,0.084204016197584,0.12214871229505848,0.5974781302548084,0.5515675054945627,1.976559381111892,0.08566068228953488,0.03999050377329009
0.03391252626927627,0.0814594438863567,0.12105365231031626,0.5958922340212734,0.5488691343748477,1.9709108515378413,0.08497080497589302,0.03953622089504084
0.03284668830169435,0.07878892647240175,0.1199762274327761,0.594415066857076,0.5462261432042641,1.9643137087560694,0.08425561711979909,0.0390969395525171
0.031875687801546454,0.07625199760362529,0.1189568272153594,0.5930099001365299,0.543571817471721,1.956434445743171,0.08354365290919644,0.038685803840527694
0.031023084736777826,0.0738787310266751,0.11805408787283782,0.5914743829595315,0.5408222949138645,1.9472962699315035,0.08284883152061288,0.03830198757874523
0.030344730711300078,0.07159744627606225,0.11723706747315081,0.5896485134679235,0.5378773916570116,1.9372034057178058,0.08216439284160276,0.03796473197685045
0.029887196043183302,0.06942640645709304,0.1166031190794297,0.5874931844331526,0.5348554166105384,1.9261870265041088,0.0815172902762345,0.03773251286581487
0.029561095005792352,0.06744314818051819,0.11625187435840557,0.585024793788368,0.5319230994546372,1.914190925201924,0.0809600137036742,0.037621047801083496
0.02940114653136754,0.06560799608948827,0.11605772593173043,0.5822258993431169,0.5290058294565393,1.9014631510718696,0.08051594144807471,0.037645254730600326
0.029620921147212258,0.06388954193936815,0.11586694341874912,0.5790801359607485,0.5259453062606605,1.8882951680822448,0.08024075637675113,0.037819272340483635
0.03018364744307578,0.062337861157684256,0.11570630855415052,0.5756056143238366,0.5227573958183216,1.8748191082512344,0.08026110403011674,0.03804281904841753
0.030873300099128892,0.06096726229821474,0.11566158371857033,0.5718132895322479,0.5196111745345217,1.8611349152372543,0.08055743604398,0.0382734109569423
0.03167701159262211,0.059717711798960085,0.11569434529654261,0.5679145260605007,0.5164878103651751,1.8471043820590063,0.08098375398014318,0.03863086646037503
0.03261579323023136,0.05852498211719789,0.11574102079689678,0.5643589863232509,0.5133692675705105,1.8323081460435788,0.08154068349969608,0.03921630269913316
0.03366281116387233,0.05736769767107465,0.11578090264706863,0.5613625101665483,0.5103720086058663,1.8166333037435,0.08229555651909647,0.04001924726729774
0.03481903696718518,0.05627217924183741,0.11590785092876489,0.5587967203828105,0.5075137144466196,1.8002535163924285,0.08327915808471534,0.04094255545691137
0.035985005247387986,0.05525685822105558,0.11623162071496919,0.556491601086688,0.5051254034011189,1.7834492403452082,0.08444048316543372,0.04187981600018425
0.037179224826706825,0.05429248593528899,0.11670323056277195,0.5543511325388686,0.5033627923008371,1.766957170961496,0.08567708400739098,0.04286294748459308
0.03871355490955017,0.05337777937973872,0.11724894103596524,0.5525173171001716,0.5019931276366121,1.751642151012951,0.086910950047949,0.04405615623058275
0.040758940962113015,0.05254489312590824,0.11789843491588242,0.5513329547553689,0.5009739119082688,1.7377218821906648,0.08827472799548315,0.04548927681067276
0.0434249187640219,0.05179776161697967,0.11884046778252906,0.550811081811868,0.5001638667524859,1.7245875727217193,0.09004226578963014,0.04710369827309593
0.04740402889564288,0.051146751483109675,0.12014833489832095,0.5506693464934616,0.4997552630564588,1.7114354914050267,0.09212745152547029,0.04891004118957976
0.053611515181876866,0.05070197537193994,0.12178481792709596,0.5509114241153846,0.49996505852611955,1.6979849260527353,0.09428045988243756,0.050817990000759226
0.062071580784499286,0.050555189826195904,0.12382765986751394,0.5514936580512649,0.500251358793982,1.6842752052545917,0.09641603349683127,0.05285471705588777
0.07165521825033,0.05061335553381006,0.1262505436675608,0.5521733818076437,0.5004300420762335,1.6701035043732562,0.09850612444181814,0.05522661032855381
0.08136831530623337,0.050773906553509066,0.12886746611190328,0.5528721571098331,0.5007730506699009,1.6552562009343006,0.10059749305655576,0.05797030244872577
0.09130284400522808,0.05111915599816829,0.13160060898134626,0.5535817954705804,0.5013999455769348,1.6397703023110288,0.10282178381815173,0.06096001227941147
0.10162011135051555,0.05169423187013334,0.13452251453818387,0.5541941644444213,0.5023780163645721,1.6236818241952653,0.10535827972403826,0.06420890623789184
0.1122066068604466,0.05236824438416257,0.13764221679905841,0.5545992385776628,0.5034169338352624,1.6069723112881735,0.1081976506156561,0.06803019628814096
0.12320087318232778,0.053082755768296706,0.14084113310661203,0.5549794698764924,0.5041386373752186,1.5896380817681102,0.11114347266630353,0.07244880662185973
0.1349021875862879,0.0539155477251214,0.14393221199810358,0.5555963230417503,0.5045695870851993,1.5716427871651693,0.1141414742177286,0.0771403320268552
0.14746910611402855,0.05488742002488795,0.14705087453462035,0.556706357990487,0.5048089194071304,1.5530592720627898,0.1171664354990175,0.08197472202860065
0.16049083871088837,0.055924530925077404,0.1504336055118809,0.5586815424822108,0.5048112426349675,1.5340447007798732,0.12013403308257636,0.08687424142042163
0.17368098292006087,0.05698292840669397,0.15383165528030254,0.5613620262093051,0.5048008046022815,1.514669592559338,0.1230037790328182,0.09177784211195061
0.18706628762840422,0.058027235847206086,0.1571875899081392,0.5641863812465815,0.5051993850549206,1.4949215187627414,0.12581058483608457,0.09666724072301833
0.20046488632099466,0.05906374328993983,0.16087441305591613,0.567018595612507,0.5060289404741469,1.4747755790207506,0.12863470729758356,0.10146478852583712
0.21368274503608464,0.06013190473718843,0.16487418613255633,0.5698622794014341,0.5069623874989033,1.4542818846523162,0.131439237618242,0.10616315933839639
0.2267283289776542,0.06119588360984298,0.16888195193078046,0.5724066349084818,0.5077402439409214,1.433488705057606,0.13410865838492222,0.11078218491325675
0.23958984394090824,0.06221471873863309,0.17280657647024283,0.5744549488489025,0.5084353797655811,1.4125227326097356,0.13665963571496711,0.11533422583654376
0.2522026983275257,0.063336479275572,0.17664119783564786,0.57604017175735,0.5093917022588922,1.3914919490092563,0.13922857300172206,0.11989802975960989
0.2647594137760038,0.06490327908813649,0.18044619873908166,0.5770939800320563,0.5106437396191551,1.3702656976449707,0.1419058129844846,0.12442856371936269
0.2772636790788897,0.06694106743936282,0.18427268052448204,0.5776384496145994,0.5119902256872074,1.3488194777854712,0.14467737856773222,0.12877580857343002
0.28946500710713124,0.06913322756194577,0.1880090402213556,0.5778222219700616,0.5135594752059606,1.3273105865385189,0.14746963539647395,0.1329234745425102
0.3013179811181983,0.0713572734150585,0.19162215721671716,0.5779148605108465,0.5155676151254796,1.3057290830636257,0.15018538520141234,0.13690297410091418
0.3129198993648358,0.07363641600429142,0.1951406427679225,0.5780940709486522,0.5177796836189308,1.2840521567068657,0.1527450993636228,0.14071108723552303
0.32439081807034426,0.07597274661544957,0.19851841065730008,0.578075108096788,0.5198370134737106,1.2623851133349266,0.15519988905678173,0.1443582712340965
0.33568523982816906,0.07836152448921427,0.2017449430294104,0.5776459656584789,0.5217175990248681,1.240741755663414,0.15764554732776284,0.14785468431592744
0.346539178291533,0.08083827997262101,0.20481701105852984,0.576824882840165,0.5234473632071103,1.2192021232670738,0.1601335975007431,0.1512235607294353
0.356847635239445,0.08356394758643496,0.2078119068070363,0.575643056541151,0.5254390333885197,1.1981101155206617,0.1626731672341108,0.1544671903141054
0.36659093336490917,0.08653845097471353,0.21087049755480383,0.5742978250866292,0.5282008096900903,1.1777273955019674,0.16515259061832221,0.15754108264022545
0.37594468875933346,0.08967455946071558,0.21416758323903487,0.572884505602919,0.5313087744719327,1.157875669536109,0.167465112401184,0.1604362743098066
0.3853313282206059,0.09298896638496904,0.21783670761194615,0.57134056187378,0.5341097174699987,1.1382100444871701,0.16958232314971716,0.16326471113987262
0.39482727793046735,0.0963436905756973,0.22164421040181775,0.5697467064234317,0.53652067323246,1.118614385870993,0.17152403823980863,0.16610679482476834
0.4045255952001459,0.09984740244102758,0.22534639389531683,0.5680531593643611,0.5387033525380108,1.0990778277451778,0.1733294392362564,0.16883884129728566
0.4144883542227033,0.10384460048379997,0.22913815333010848,0.5662926317555761,0.540692312021181,1.0795230597620322,0.17502945066551895,0.1713961352121185
0.4244604365285371,0.10851724514786823,0.2331657123086381,0.5649043210220084,0.5428283475270046,1.059996495952405,0.17668718470545647,0.17381723153955891
0.4343114623782161,0.11380472904948785,0.23726784450724697,0.5638733923121543,0.5455643363022679,1.040789886438037,0.17833630791025445,0.17606559578712475
0.44399706617846535,0.11928075751296435,0.2413905472220394,0.5628042110268157,0.5484637219581816,1.0222622255072817,0.17990874281046748,0.17811981978714964
0.45343485428114794,0.12461761048392594,0.24548883060271356,0.5615991823964266,0.5509616705011583,1.004488813229234,0.18133944437084973,0.17997967098468332
0.4623456741890515,0.12978275385584082,0.24942608010973666,0.5603121749044301,0.5535612899548756,0.9873871722845444,0.1829006287159894,0.18171197412674675
0.47062347599983195,0.1348254645592359,0.2531720627493029,0.559008167161677,0.5568440162733806,0.9708510171459933,0.1850263912934694,0.18338745909619167
0.47837469406708305,0.13975288060646507,0.25671141590661195,0.5575554377899409,0.5602421185493784,0.9545240688666428,0.18763665768769455,0.18491337407004327
0.48598245595579004,0.14453182540287315,0.25998952833233413,0.5557947033483367,0.5632057400312657,0.9382391639046178,0.19031338180386564,0.18624794395785207
0.49413430421227883,0.14921093887589293,0.2629477282383698,0.5537209906191443,0.5658110740568344,0.9221840320563887,0.19284382684887902,0.18750517073781736
0.5029859314700298,0.15382347171301952,0.26571740906800595,0.5515170513790252,0.5681179768769314,0.9070795855261169,0.19535893971888457,0.1888008629052762
0.5120771671139155,0.1583478062953128,0.26855815547459144,0.5495383421716162,0.5701305040929324,0.893734837672604,0.19811771072448783,0.19020564348338284
0.5212083008745272,0.16294387033777405,0.27148419451245515,0.5478171013701163,0.5719464226235795,0.8818455076143005,0.20113363177812144,0.19172010161900235
0.5311510400343056,0.16799189487559568,0.27442213523197356,0.5462033970553194,0.5739335647298496,0.8713464547259828,0.20419872373456124,0.1932778354287103
0.5420142930715377,0.1735609691797077,0.2773886818979406,0.5446606842447036,0.5761226869306046,0.8632504655479346,0.20710062607793775,0.19478185706018197
0.5526577595340816,0.17924197437074138,0.28033961166469523,0.5430803920329675,0.5782555181523488,0.8580024902129305,0.2097567114234226,0.1961595031146934
0.5625124088483341,0.18470363589686944,0.2832526963884178,0.5415993982369224,0.5804059909772078,0.8552230788838007,0.212148353976483,0.19747510896813564
0.5720041633210099,0.19000370037477987,0.2861334542322509,0.5404354540042925,0.5825512047592308,0.8540253835539022,0.21433153814937608,0.1987969600674937
0.5820957207871232,0.19531790815175304,0.28892702118249036,0.5392950951664951,0.5845154821622841,0.8534793368748378,0.21646699199721348,0.2000633352671395
0.5930387692871387,0.20067394385419235,0.29199553074798756,0.5379778191083345,0.5863315334482583,0.8538379578393497,0.21872187691362333,0.20127542274126115
0.6039299392055748,0.20601133125034363,0.2956316263739751,0.5366396767389443,0.5880508483766153,0.8558237854645266,0.22116905736567732,0.20245446930413474
0.6141859782087363,0.21125218232445844,0.2992923139695139,0.5353162964932985,0.5894753922405934,0.859437735637065,0.22371758285004748,0.2035740286814795
0.6239315604661706,0.2164624920242989,0.3026186351280331,0.5339748847322383,0.5905631117675534,0.8639369716840702,0.22632715907475157,0.20464897701281637
0.6333399227129604,0.22209320222598036,0.3058091155507941,0.5324904869578457,0.5917086933672996,0.8688440915914487,0.229139704610912,0.20579387635662688
0.6425770990169928,0.22880257510064003,0.3089601815294981,0.530783832504028,0.5931425249760086,0.874544475917879,0.23227740290810572,0.2071650444712945
0.6521363711923408,0.23644365510477056,0.3119367846349262,0.5289999465778256,0.5946367455024743,0.8812522152082995,0.23557600378406968,0.20867777927699477
0.662495959830126,0.2441863200617907,0.3146700871661627,0.5271639654655634,0.5958730482469603,0.8887097930467304,0.2387445203415228,0.21016400545739286
0.67390526657979,0.2517646141566161,0.31719476705904553,0.5251395205180779,0.5967745303927314,0.8963626059219271,0.2418590920617122,0.21177721706866745
0.6864814944015492,0.2594123723782532,0.319443907373488,0.5228097230244346,0.597508648633875,0.9038069959940197,0.24512632084715402,0.21371760291646605
0.6998007501264338,0.26717936623583377,0.32166131904014617,0.5204374720578488,0.5982491160996708,0.9110314615598388,0.24863002184013563,0.2159423280760175
0.7133632407200894,0.2747721055759,0.3241939097154516,0.5183946302250926,0.5989681981854852,0.9181054445107663,0.2524233957695999,0.2183165412014061
0.7270717568744518,0.28205711347084955,0.32703890973202926,0.5165819374458508,0.5996594440392903,0.9252024895965691,0.2563965888961874,0.22076459440249319
0.741341305177244,0.28908084531246736,0.3302267979415042,0.5150245720983492,0.6005239745919678,0.9327894456217297,0.2606382403864131,0.2233410890091963
0.7568491259890053,0.29575427087446643,0.33365936453123995,0.5138466612108935,0.6018810366315995,0.9415062935505102,0.2655471181398865,0.2262452205675828
0.77342614741531,0.3020661125508293,0.3371287700841598,0.5131531994601336,0.6038015197517748,0.951877194884938,0.2711162315645857,0.22959366650946633
0.7899936368418452,0.3080393616757296,0.34058326254564847,0.5133717628884538,0.6060317631989124,0.9637467126060207,0.27695715705224294,0.2334775470748169
0.8057938727302213,0.31374313903300455,0.3439399234420309,0.5144825650880317,0.6089238802482589,0.9766371058445419,0.2829053526178497,0.23825094399080943
0.8213731333562025,0.31929730946230683,0.3471262180359265,0.5159710574892569,0.6132954323283661,0.9907389465549197,0.28895710004904196,0.24390402350772497
0.8374814935285294,0.3249437064827387,0.35010635793148576,0.5177525304786572,0.6189776188651719,1.0057586528155469,0.29525583373176334,0.24985153788056866
0.8536658797752036,0.33101385469104966,0.35279950731515985,0.520160201914045,0.6249452213183299,1.0210467870771776,0.30201874792115396,0.2558810574371404
0.8697736442073517,0.33734975999484634,0.3551754219507056,0.5237127832999119,0.6311132156805885,1.037044941517721,0.3091589682895049,0.2624779580239449
0.8864745328312889,0.34349248368193924,0.35733251130385485,0.5285910996634957,0.6378680961000002,1.0541213452302132,0.31649942812492415,0.2700725452967794
0.9040074570819676,0.3492773414537432,0.3593651195886107,0.5342447550809738,0.6446830766534344,1.0717446384971043,0.32401765305658914,0.2785004701503639
0.9218580019943442,0.3549081926063578,0.3612967518033735,0.5399726884636816,0.6514018751899354,1.089325793103909,0.3317989490126659,0.28715576202533116
0.9392128747450652,0.36048658278590145,0.36315667494582715,0.5458597453681459,0.6590451358392112,1.1069900717958863,0.339938032769311,0.29570594440997483
0.9557425626943541,0.3658890589989867,0.3650130691329401,0.5523947738541727,0.6681336118984642,1.1255592387941291,0.3480838866649609,0.3042409336787788
0.9715538843847062,0.37132531465225277,0.36683755167341514,0.5590284878369023,0.677666377649432,1.1454106306531446,0.35588068257653077,0.3128534393932991
0.9868366273581511,0.3770493856690915,0.3686564917251873,0.5653624090394684,0.6868259800293461,1.1656269311200962,0.36336280578828584,0.3215250921948939
1.00172604031791,0.38296969293101546,0.37057534934019215,0.5718179795140963,0.6959474040877929,1.1853437067462838,0.37067711234333217,0.32994408190459823
1.0161111799416211,0.3891923402279629,0.3724542108509851,0.5784705977931476,0.7051304780276316,1.2048377538758577,0.37819824687240633,0.33805308674676227
1.0298930968937048,0.3958118426250951,0.3741124796583869,0.5850846417382232,0.7138087229056741,1.224200220523882,0.3859968776205354,0.346345823449854
1.0438870139496241,0.40270427423941196,0.37560494263656,0.5913745921365458,0.7215811692882287,1.2432710404769909,0.3936856890638835,0.3551673431183355
1.0585047951496527,0.4097775748720082,0.37704433948579347,0.5976225844762775,0.72850641986324,1.262418889400544,0.40101465018545074,0.36443934849520004
1.0727357537656441,0.41667607213846997,0.37832461135281553,0.6040918482282229,0.7347349519328147,1.2818158265424553,0.40794552143386653,0.3739527908362631
1.0859277370961897,0.4231466360339567,0.3794714950659617,0.6103854227026667,0.7404782357874535,1.3006968459833819,0.4146894896418089,0.3837080514195548
1.0979593822238516,0.4291615003280057,0.3806434568862793,0.6164981807109398,0.7459590783349307,1.318457717363057,0.4213685132318599,0.3935849143194719
1.1087558361747618,0.43464774367832265,0.3816243250244324,0.6224922519813524,0.7516649816042381,1.3353907234215316,0.4277583298004333,0.40325431982064813
1.1187481378692374,0.43958292566486057,0.38232785338565695,0.6283402634932326,0.7587975002526658,1.351328285688993,0.4337784208573239,0.41264908852339827
1.1287304706047916,0.44409989000564476,0.3830261671369213,0.6342501811631983,0.7679028606104612,1.365669796103727,0.4394925289333179,0.42173196935864704
1.1387604898318322,0.4483595410522941,0.38398625687442667,0.6401133198166095,0.778619101419846,1.3788318089219127,0.44500203767507857,0.43046094520551875
1.148218018099964,0.45248260949371605,0.3851757620084145,0.6457722748659305,0.7902307082482852,1.3913810640665176,0.4502971472300077,0.43889645583759374
1.1568714228180141,0.4567384883140693,0.38628269666137005,0.6516516711310026,0.8022864042661928,1.4027102804925988,0.455141368158881,0.4470364242727367
1.1646135748460678,0.4611841568245538,0.38726946464317746,0.6585051375917407,0.8149558306091343,1.4125205553003755,0.4594158985545648,0.45499949628856245
1.171824268937531,0.4657268440039654,0.3884412032305641,0.6666514556319996,0.8276852668216378,1.4213765574287918,0.4633285750028494,0.463099911159946
1.1790678870752238,0.47060532840637287,0.39010966884116793,0.6760332638791601,0.8402124353335615,1.4294649831004222,0.46715209711811234,0.47169829346972036
1.1860017075427558,0.47580030765360254,0.39216474734380646,0.6866011868421463,0.8526744368106591,1.4364837677540632,0.4707663006786349,0.48070452860698176
1.1923383168642656,0.480724706519976,0.394280100025741,0.6981263288272035,0.8651423033551129,1.4426932543538322,0.47403638757926364,0.4895706934186288
1.1982379550855486,0.4852050084792313,0.39641763558396675,0.7098873704111317,0.8785464626974372,1.4485438322657627,0.4772616508328608,0.4984547780290896
1.2036002544193456,0.48945676552889017,0.3987080454609351,0.7213946889392592,0.8928466580426092,1.4535440034213447,0.480534527882473,0.5077418979874861
1.2080355454774643,0.4933320276449903,0.4012628222308063,0.7325278535263395,0.9070741693161829,1.4574450859513735,0.4835355500087988,0.5169977295347564
1.2115196570535773,0.4967899269616806,0.40418835818100396,0.7429781353221894,0.9215192872828415,1.4605050264930615,0.48615328655733236,0.5258068532325765
1.2142844528937253,0.5000124110042438,0.4075192046955111,0.7525912860142165,0.9370612135255544,1.462643762586934,0.48844866813152904,0.5340798874027091
1.2161245141861707,0.5029531113190909,0.4109871524441816,0.7613743454963994,0.9533631559309788,1.4639995508904087,0.490379999415817,0.5417385380804199
1.2173122584278562,0.5057083515364054,0.41456952352086035,0.7699767007328157,0.9692330503468487,1.4647187677293003,0.4919144344412178,0.5487018208627507
1.2184565642388794,0.5084774237317464,0.4183648622240034,0.7791333543964458,0.9845072017662404,1.464694662718231,0.49312122709399403,0.5549397436435051
1.219237288740531,0.5110899046020533,0.42197915021992305,0.7884169072560963,1.0001127284887292,1.464260429100339,0.49418728523353805,0.5608388471089404
1.2195558168796494,0.5133829279933858,0.42516938563890455,0.7971509726009505,1.016147197150342,1.4642967968665777,0.4954118774356431,0.5669697800409876
1.219672620841501,0.515521939530843,0.42801108986546393,0.8051704761934688,1.0316203958122632,1.465023974649422,0.49678693212716485,0.5732764332339133
1.2193690316094896,0.5177856910441463,0.43057015293288503,0.812873141373384,1.0464214296444971,1.465542066302733,0.49797697148081993,0.5792570072073712
1.2185833795725352,0.5201732622390481,0.4328296429581175,0.8210943586554424,1.0613675335029054,1.4659933768394553,0.49881505186814695,0.5846123444121526
1.2173373719047447,0.5222958679334995,0.4348405126156052,0.8300309790519335,1.076792329237524,1.4673498359608756,0.49942932023916353,0.5894045608280234
1.2161269196545228,0.5240626840014602,0.43686569092362765,0.8394360214583976,1.0920851309467485,1.469236501955313,0.5000294882286782,0.5938473937051638
1.2153929193021205,0.5257883339403692,0.43897614639599,0.8493335376412336,1.1065148273336853,1.4708863716156537,0.5009231430541949,0.5981322574578937
1.214466837078193,0.5276467754817015,0.44095887111205745,0.8592646700150578,1.1201584824643924,1.4719604727805695,0.5023173045768946,0.6027031530545847
1.2127962940798145,0.529643815692183,0.4426704105954995,0.8686567497209667,1.1332109175312322,1.4721016898696506,0.5037275458058416,0.6076903286860273
1.2102748496008593,0.5316511563936998,0.4440740954983279,0.8773302418821676,1.145571562270828,1.4712233931302319,0.5046771037339044,0.6124557717711685
1.2070020885723949,0.5335126350600771,0.4451351472015577,0.8853280578306133,1.1576262734115568,1.4699056111561006,0.5054124036669644,0.6167103352776477
1.2035353245146994,0.5354467437128525,0.44618167075143844,0.8933003182789918,1.1702659395496582,1.4691916655783697,0.5064969807786178,0.621287799049768
1.200274120366077,0.5380769385509614,0.4478751965967307,0.9017619414898805,1.1836401446163995,1.4694839062214387,0.5080817585304258,0.6267179600197996
1.1973397248619038,0.5416311831543087,0.4503531222588591,0.9102489053800245,1.196941857536299,1.4704441438093363,0.5097423127910627,0.6320826606355402
1.1951219263203352,0.5455845016225545,0.4532647284817032,0.9181100635166236,1.2092988985117248,1.4716680091705008,0.5113266564416715,0.6368246320931393
1.1935516094900718,0.5494343462975531,0.4562206306545201,0.9251845009084244,1.2205331249991607,1.472594616207336,0.5131976132562913,0.6411468786033648
1.192221053850862,0.5530344059993502,0.45943000063586525,0.9322617744012002,1.2310903276621659,1.4728014010743529,0.5153609796535552,0.6449230619790338
1.191234786049866,0.5563653160200199,0.4637278413811116,0.9403913088473224,1.2410499087487872,1.4725735112165281,0.5173606870222602,0.6483136714892952
1.190331416478686,0.559448928742362,0.4689690993035855,0.949118371058902,1.2504482812179272,1.472431502573301,0.5190949415258995,0.6515929415512756
1.1889465946825424,0.5622996997205779,0.4743321461803295,0.9574391059033155,1.259367619145294,1.4726124745123286,0.5207674971281793,0.6544750486138112
1.1867749680090551,0.5649450530257677,0.47975302419841365,0.9653631377354752,1.2674256572646676,1.47326936562171,0.5222925028869134,0.6567337750809883
1.1841938083338812,0.5673579316642235,0.48565857373661653,0.9733145848196436,1.2744046646740934,1.4743942319258596,0.5234542619932939,0.6585946087496737
1.1822262975223332,0.5694324474294286,0.4920153453671468,0.9811709179544705,1.280170959487024,1.4759990807274073,0.5242473803446244,0.6602067631447515
1.1808142383863145,0.5711344998362358,0.4982961470185054,0.9887214210756379,1.2852864932137777,1.4779077274272225,0.5247205417783676,0.6615794885209736
1.178972078894267,0.5725254332288484,0.504397927041254,0.9962529049762249,1.290958020700853,1.4797039701602597,0.5248403919596475,0.6628087817083541
1.1763859904066039,0.5736107388842022,0.5103426320403365,1.003872586214928,1.2972361364553588,1.4810900914953888,0.5245820530639712,0.6637191681764391
1.1731643435414372,0.5743825926043165,0.5157970509781673,1.0113954409358534,1.3032125592681472,1.4816546745237649,0.5239555232537826,0.6640561893529404
1.1692910659446965,0.5749006723613819,0.5205967032290425,1.0186245213570315,1.308239406244181,1.4812657263572913,0.5229372919022557,0.6638043204881348
1.1646912392283195,0.5751086465244307,0.5248188964210675,1.025184515227303,1.3125336101200882,1.4800519768645495,0.521531992047395,0.6630094536039097
1.1594877947889717,0.5749328729528038,0.5285381361769291,1.03089758670839,1.316330127670066,1.4779768951808876,0.5198380324403787,0.6617293825618368
1.154032913026247,0.5744102554728003,0.5320066967102379,1.0362764130260398,1.3191588465640514,1.4749996835458543,0.5179230802158534,0.6599931143318198
1.1484029604094106,0.5736633464656531,0.5355530487434484,1.0417983431227222,1.3208250844308302,1.47124265096806,0.5159189348392936,0.6579959846303957
1.1423635999308106,0.5729031925338588,0.539110214380055,1.0471509592266144,1.321745477253592,1.467445337959111,0.5139383824579745,0.6561457289339022
1.1358247923476714,0.5721043593166883,0.5424670249056575,1.0518684347018854,1.3220986391264835,1.4644890210148616,0.5118285329586875,0.6545313542999192
1.1289282158169167,0.5710954640884148,0.545628946230387,1.0557932952416629,1.3215678952045105,1.4620591975995714,0.5094700089151394,0.652776441302426
1.1216359022789768,0.5698732374874271,0.5485479072559462,1.0588492205082376,1.320038392237889,1.4592527881324806,0.5068491499966704,0.6505879235420186
1.113824998281508,0.5683812705512199,0.5509909537238451,1.0609974754374734,1.3175616952144218,1.4559016603521018,0.5040133163552573,0.6482274511110184
1.1056592998716197,0.5665190643814789,0.5528426894426676,1.0623623474459873,1.3141746708442579,1.4523937625375487,0.5010481333140392,0.6460457590741308
1.0972222821581858,0.5643178779636358,0.5541604526416437,1.063043421320007,1.310020437875154,1.4488061535311112,0.4980155722505729,0.6438767216776993
1.0887812613862793,0.5618681127336441,0.5550263491743439,1.0630028953376467,1.3051430329731895,1.4448582648674915,0.4949682905892211,0.6415146184862967
1.0806654865800447,0.5592163658755268,0.5555527828949652,1.062379141967263,1.2995719054009074,1.4404492172360248,0.49180958067688985,0.6388965743938898
1.0724006422181995,0.5563338591357853,0.556014749582764,1.0613050835872972,1.2934361837213209,1.435416100848115,0.4885005326295678,0.6359158920309889
1.0636134001550737,0.5533136348165643,0.5569294232077675,1.0600553919902571,1.2867262110415265,1.4295568861951906,0.48513110571438023,0.6325243484407793
1.0545488959283529,0.5503384282591932,0.5583965949064499,1.058959831846496,1.2793463871205004,1.4229933606183354,0.48170717674164537,0.6288166179562007
1.0453215328908185,0.5473690398044828,0.5598626483056841,1.0577052089724726,1.2714332352917788,1.416083393345017,0.4782277338012252,0.6249504255114756
1.0357400321394161,0.5442141907039744,0.5610119767768256,1.0560522666046228,1.263091117164239,1.409149578526707,0.474685176597925,0.6209096460263529
1.025628454900492,0.5407646390263933,0.5619708956379624,1.054213802724316,1.2542865542316175,1.4021595309209691,0.47101212246292634,0.6165854203519046
1.0150062265237378,0.5370699515550362,0.5628269850654632,1.0520993650218138,1.2450949445677204,1.3948416325688904,0.467150928871071,0.6119273812399633
1.0039392228846729,0.5332045215625787,0.5635036556990011,1.049549152851733,1.2355352957590329,1.3870567327230312,0.463120185361656,0.6069411601265257
0.9924975724917413,0.5291260130841201,0.5638743320545061,1.0465578216208622,1.2255191694442067,1.3788660711461946,0.4589913249637318,0.6016324605648672
0.9807955197027897,0.5247807637255392,0.5638316064793316,1.0429602219651926,1.2151897336087674,1.3702082709086942,0.45477259762782213,0.5960003636310287
0.9689292237295026,0.5201711882175327,0.5633466834713107,1.0387326857012804,1.2046775512101542,1.36082449466478,0.45043855178200237,0.590077732324361
0.9568838483577518,0.5153332813162357,0.5624258755590652,1.0341339914156076,1.1937533322801603,1.3508021517788888,0.4459850110811892,0.5839363977563534
0.9445450856782897,0.5102883221091187,0.5611358153582997,1.0295056338161064,1.1823318678274892,1.340479535878696,0.4414348398501398,0.577631908758233
0.9319108536963947,0.5050301210519544,0.5595740261364649,1.0251876680525382,1.1705193385052173,1.3297593143778674,0.43681000210473003,0.5711640700952805
0.9190931073704038,0.4996331948964915,0.5578474274036755,1.0211172867241554,1.1583775725689236,1.3183481896449176,0.4320647199297633,0.5645194808123493
0.906152312000145,0.4941823280089297,0.5560985671791645,1.016939990799584,1.1459459714400215,1.3062671446446232,0.4271486350772017,0.5576788069978358
0.8930996224028035,0.48863163928620684,0.5542899855536109,1.0126377154902095,1.1331622148042215,1.2936505584849924,0.4221140318945849,0.5506571739986824
0.8799057009500881,0.48291059400435105,0.5523859081448331,1.0083002769626557,1.1201007496255435,1.280587371957997,0.4170244089741081,0.5434892824368432
0.8665493072236634,0.4770187466290095,0.5504123809761643,1.0037461840852027,1.106879857465549,1.267236637475534,0.41188038502334534,0.5361683504512609
0.8530236526005878,0.4709959516105072,0.548267352127081,0.9987552401503985,1.0934456848669538,1.2536437979593247,0.4069166127789092,0.52868803864639
0.8393692085561247,0.46490720170945765,0.5458600560064055,0.9933913632619045,1.0798405279124188,1.2396586626155441,0.4024376052603994,0.5211159824801497
0.8256515559785651,0.45878129924455086,0.5431373543348935,0.9878163432327389,1.0660849518644056,1.2251847478056948,0.39827952957986373,0.513516966795447
0.8118599413801156,0.45259902908101457,0.5400821523022129,0.9819511345356272,1.0521787156522804,1.2102639536837712,0.394231874951955,0.5058660697479103
0.798017579756364,0.44635543743089523,0.5367252206625376,0.9757003489675073,1.0381952796298224,1.194950162918875,0.39041409781058567,0.4981595604554788
0.7841600981658442,0.4400391590274891,0.5331297140576025,0.9691001489245473,1.024064581328362,1.1792819241423025,0.3868600100704484,0.49040729576487363
0.7702480445478794,0.4336393926712212,0.5293295291729286,0.9621988345638005,1.0097063732005773,1.163369998496093,0.3836150716377305,0.48257863262954426
0.7562637918315489,0.4271592590535211,0.5253305434559465,0.9550228399392976,0.9951912055999307,1.147380742701696,0.3807625841591682,0.4746643912573425
0.7422106065196858,0.42062187870393974,0.5212321742293776,0.9475174841147966,0.9806468881425625,1.1314533010239483,0.3780475527045889,0.4666759312588995
0.7281317954398115,0.41406279459517364,0.5171095565906094,0.9396842679968928,0.9660151836890041,1.1155936782231632,0.37527273245998716,0.4586442481137147
0.7140821801122752,0.4074625384534355,0.5129008648693288,0.931645290971101,0.9512939578714871,1.0998276105024842,0.37257711962116297,0.4506057180350392
0.7000406260334736,0.40079584181936756,0.5085069274857177,0.9234439995859766,0.9366082886299371,1.084313344425722,0.3701604531920203,0.4425617132991867
0.6860002812532974,0.394112143947606,0.504000210188701,0.9151689107459776,0.9218370898000399,1.0689679982493279,0.36806643195754785,0.4345135518338196
0.6720147640020012,0.38747212396644454,0.49949694019300134,0.9069315097996418,0.9068846776128024,1.0539661951417314,0.3660891639174874,0.42649592807809134
0.6581152516637648,0.3808669224026831,0.4949745714948527,0.8988384009668798,0.8919806271129389,1.039822307737087,0.3640115338007532,0.4185085695254491
0.6442646241945711,0.37424791544342534,0.49043830011208056,0.8909914165353072,0.8773043744427625,1.026285386753009,0.36179979306866267,0.41050438461333655
0.6304473853182557,0.36758197752443567,0.4858596799141095,0.8832537175232306,0.862693040478026,1.0129342814910436,0.3595354504656532,0.40247177422087427
0.6167088535225924,0.3608708976762853,0.481164740140681,0.87556116550136,0.8481177946762795,0.9999543274852517,0.3572764655871121,0.3944531583584786
0.6030856159796808,0.3541632324455207,0.47640318400255965,0.8679058533073576,0.8337516031479805,0.9875425058083505,0.3549913567410756,0.3864891001080451
0.5896058726542445,0.34749873903895434,0.4716761067387134,0.8601865780843836,0.8196861682081814,0.9755323333946457,0.35261660576446924,0.37856485952400815
0.5762496578306919,0.34086860360270205,0.4669197141740721,0.8523734561733552,0.8060156027193152,0.96375748819952,0.3501115991662527,0.37065961280908366
0.5629643244004153,0.33427104808428226,0.46212650032908525,0.8444647369687154,0.7927426311196761,0.9521923678124129,0.3475579612964903,0.36279353847915913
0.549759618260431,0.3277177121532949,0.45740966812968326,0.8364588382328754,0.7799430210975482,0.9408189658876235,0.3450204444531853,0.35497921439342484
0.5366581558546869,0.3211996291084677,0.4527503942484687,0.8282540509949387,0.767628617168339,0.9298605678263078,0.3424005085742326,0.3471951920912701
0.523661413261954,0.31468813001155244,0.44816404755248945,0.8197532781961089,0.7555027268021728,0.919303032766321,0.3396574629898218,0.33944766974546753
0.5107773872698937,0.3081892151852981,0.443665258627791,0.8110043330510032,0.7434084017666649,0.9087981496405024,0.3368193636930676,0.33177597071133424
0.49800693238034477,0.3017554137301913,0.43916764842532396,0.802120050123732,0.731396062372622,0.8982601688257462,0.3338663375560521,0.32417752056829907
0.4854042439491435,0.2954435951164749,0.43463539215297015,0.7931750614923563,0.7194670570185937,0.8877541900072017,0.3308530315140584,0.3166765298700928
0.4730276861875449,0.28928129589306606,0.43009442886824034,0.7842608724691291,0.70778974390661,0.8772956513021415,0.3278518338063091,0.30931612084035043
0.46085263724828757,0.28325459589540397,0.4256832400390993,0.7758728253496349,0.6965516658339902,0.8667922988772994,0.3248116280808542,0.302063860551182
0.44884197880686855,0.2773299911032664,0.421473990361782,0.7682502203229141,0.68560417987108,0.8560623278185889,0.3217036148366563,0.29489530703393974
0.4369801047185997,0.2714753348915652,0.41729481921155664,0.760945938117445,0.6747981360611747,0.8450256559289426,0.3185872289608283,0.2878271153893942
0.4252720012450997,0.2656798679408946,0.413041478943,0.753799420466829,0.6640041013112515,0.8338132417677296,0.31547252892302924,0.28085506219344963
0.4137222895076716,0.25992655539471315,0.4087012411395263,0.7467438514689028,0.6530982556206679,0.8226040102179089,0.312308960873934,0.27398170069510086
0.4023285509394165,0.25419237601718336,0.4043088160877782,0.7397152309898405,0.6423834828082403,0.8113885869103246,0.30910170266075326,0.267222749816281
0.3910749495850279,0.2484820343354653,0.3999643156178611,0.7328395208053166,0.6323632705395394,0.8000510355628688,0.3058958650254297,0.2605530192113444
0.379966260230492,0.24284012314635986,0.3956631654875071,0.725942879247826,0.623063911321526,0.7886544107726102,0.30274128294557884,0.2539884428028417
0.36904702598872996,0.23730923134239038,0.3913474607490536,0.7190796758642891,0.6142290490737606,0.7773393154970284,0.2996254026826352,0.24757090438054322
0.3583529854317703,0.23190324606067722,0.3870019425673902,0.7124957778887862,0.6056731931536795,0.7660730150408323,0.2964626331776289,0.24127346612145878
0.3478846768838355,0.22661527250270544,0.38259867207496856,0.7060851147563972,0.5973456774260315,0.7547773484509398,0.2932380076543568,0.23507024487230366
0.33760896757497993,0.22140517178904046,0.3780976083725879,0.6997393721376517,0.5895655445496112,0.7434310673462177,0.28999744304302694,0.22896982107668784
0.32750735052963986,0.2162411601012593,0.37349397477514484,0.6933548799690049,0.5824970392619653,0.7320406394037211,0.28677819032690227,0.22298698901345046
0.3175686408965407,0.21110616224111006,0.3687966731076884,0.686779023083789,0.5758018211904401,0.7205989219517043,0.28362254707733675,0.21712910057500395
0.30777529664606545,0.20601056084125977,0.36412128405154187,0.6801401272797524,0.5691826364226547,0.7090657024586997,0.280524109678845,0.2113830096800133
0.29812376962799897,0.20099767907928734,0.3596518899169178,0.6739354160794324,0.5628431498556766,0.6974494059004125,0.27740983802347957,0.20575609145654622
0.2886372727827794,0.19608881974378506,0.3553437381118726,0.6683459043392178,0.5571784844525026,0.6857782292021184,0.27424331111554084,0.2002686573913984
0.2793512228839838,0.1912775156388776,0.3510535758462203,0.6632566507112841,0.5521179821603464,0.674012337396212,0.27099642708515703,0.19489319996675533
0.2702658743329577,0.18654411451760522,0.3467914491928013,0.6588580937454318,0.5473862076061932,0.6621337759001541,0.2676691266626587,0.1896099848882381
0.2613478469406292,0.1818764288911939,0.3425535686841801,0.6550241755180132,0.5427728650932009,0.6501923386883984,0.26429486056163815,0.18442010424968303
0.2525851074227526,0.1772761093584968,0.3383362861211381,0.6515067378678601,0.5380298815847635,0.6382022868041043,0.2608655554681539,0.1793178266239518
0.2439994252675646,0.172751355705889,0.3341427779099248,0.6484224567030072,0.5333346187034957,0.6261973663547253,0.25738691394973184,0.17430427102968327
0.23560476704964733,0.16831662438728537,0.32990919992778356,0.6455081060084228,0.5294985361146541,0.6143502763576472,0.25387112434659415,0.1693871081557647
0.22740093607788658,0.16399234267558807,0.3256614385714999,0.6423512716474306,0.5267487527061492,0.6029932074442804,0.25035662501919254,0.16460032610670397
0.21938755997711026,0.15979125756332688,0.32148444259067327,0.6388986792493875,0.5243453774187602,0.5923230942037977,0.24690024055490856,0.1599696241604322
0.21159752845290045,0.1557187572129994,0.3174326570385264,0.6351531427206077,0.5218076601444698,0.5821933522530424,0.24349609645997586,0.1554793183884952
0.20408883013679516,0.15179992935942196,0.31350455247059755,0.6311376943666845,0.5192575501166943,0.5725033612580972,0.2401318371356411,0.15114101470133834
0.19684980253689038,0.14801850743083106,0.30959825718818595,0.6268478823599549,0.5169588000591137,0.5631631348774806,0.23684240708486035,0.14699241172747335
0.18980885603312853,0.14431199740520004,0.30565642113147956,0.6223265148924345,0.514875962271483,0.5541464331571608,0.2336277302373513,0.14299584121208733
0.18292406460905922,0.14066735037729108,0.30170445222550635,0.6177885982292888,0.5127743424064187,0.5458557451578925,0.23042080211766952,0.1390950671841608
0.17620197512001365,0.13709876859111594,0.2977198623638903,0.6132659764232978,0.5104628929736401,0.5385349632886376,0.22719095230835265,0.13529637858313012
0.16968880856559196,0.13360639176894895,0.2936811721841321,0.6086152601278068,0.5078994763185082,0.5325635358996405,0.2239489810698193,0.13161237845142376
0.16341520374063068,0.1302303957150868,0.2896013177389873,0.603793018195079,0.5052178639999787,0.5288847972058387,0.2206918591170544,0.12802826760860242
0.15734337716757282,0.12702246989116178,0.28549271266938986,0.5988581617446158,0.5025327565589502,0.5280177747544561,0.2174434472502599,0.12453647950960904
0.15143030654171177,0.12395166381401845,0.28136057296782657,0.5938604646032388,0.4998000965014965,0.5299480940160788,0.2142399328662429,0.12115643110847725
0.1456948594680977,0.12096818175190793,0.27717648090938835,0.5887071932418851,0.4968507536906636,0.5337433287527009,0.21107577172006442,0.11789321578396636
0.14019502787569504,0.1180644233316131,0.2729199898098433,0.583316480140857,0.49368361985629167,0.5379615238457611,0.20795230846039162,0.11473822087214983
0.13493256847257024,0.11523304149610447,0.2686184130983528,0.5777439637596237,0.4905920271352797,0.5426270282739761,0.2048574181029017,0.11166973159561742
0.12984207291756344,0.11247362454360972,0.2642979207901468,0.5720229823717938,0.4878899173688954,0.5485516436394406,0.20176610307690906,0.10866689330567901
0.12490761093443788,0.10977233727760922,0.2599501341388849,0.566118709284216,0.48554960186615376,0.5559356859834861,0.19868119247907143,0.10572975210060018
0.12014053769431561,0.10709583174542077,0.2555804367669748,0.5600314379709483,0.48334366727115774,0.5645013405749782,0.19559201437255047,0.10285828864904162
0.11551143758630857,0.10444561501932322,0.2512341152226592,0.5537950555965806,0.48122828784794486,0.5738814354062024,0.1924950506577995,0.1000524210520524
0.11099872604371998,0.10184316116204464,0.2469210357286964,0.5474421206713316,0.47932191784014805,0.5838643731619428,0.18940031554374168,0.09729863573280687
0.10661507389075649,0.09932902280292893,0.24261048794012868,0.5410239472187542,0.47768417448705675,0.5942271118995481,0.18631069995288096,0.09459064203687409
0.10237247672558293,0.09693521908601735,0.2383466391220772,0.534669913776968,0.4761578744073917,0.6052707540547201,0.18326239400700936,0.09196918014866072
0.0982689007738892,0.09463208795834663,0.23417837806197073,0.5284368551039512,0.47459924319451274,0.617403007064114,0.18029666121059745,0.08946645033885664
0.09433569619633242,0.09239116883212274,0.23006545933251157,0.5222453002517352,0.4729710748747236,0.6305849088485339,0.1773927186015059,0.08705296535722203
0.09058262844572075,0.09020523571277818,0.2259960768118,0.5161061091221669,0.4712579053052314,0.6453331113026062,0.17451056885180322,0.08468706129252505
0.08695869110626907,0.08806063758127662,0.222019068984461,0.5100162472235628,0.46948514014618725,0.6617391451170392,0.17163867554734336,0.08236226862832319
0.08344839941704811,0.08594427673538758,0.21812757517910125,0.5038657890415478,0.46756347733643283,0.6793540865332435,0.1688061094270512,0.08009910311571872
0.08005688967271914,0.08385028334371293,0.21425477671824672,0.49762987597204367,0.4654477550301181,0.6982287419439798,0.1660473259086747,0.0779037575613248
0.07679564624121687,0.08181313678666596,0.2103902282024836,0.49134498576305763,0.463228680384136,0.7177886999740078,0.16337515400935293,0.07576871827101485
0.07369558652068914,0.07989250703213889,0.20655735995698288,0.4851262897078217,0.46098643258177147,0.7372698989060352,0.16078840971802438,0.07369342580047951
0.07073264110708052,0.07808518493375398,0.20276518161755605,0.4791507498138091,0.4587442412528284,0.7563360276673537,0.1582457622766209,0.07167728733505992
0.06787028228073969,0.0763545616407996,0.19903564391914785,0.4733600807775658,0.45653101245242667,0.7745186997606032,0.1557009484830271,0.06972636466636997
0.06512027425149884,0.0746922889573998,0.19535625345219787,0.46757800450501313,0.4545014012520838,0.7918253808464679,0.15318994910501785,0.0678463932011556
0.06248707557821104,0.07308362952728178,0.19169495344840592,0.461749556224651,0.45275636303240857,0.8087989342004838,0.15080732226012744,0.06604279060761181
0.059974838295173236,0.07154786443604347,0.18809460823917099,0.4558623202259543,0.4511849267087845,0.826333367301759,0.1486166491656765,0.06434072325515368
0.05760747508646702,0.07013011032593612,0.18460953248996542,0.4498844192328873,0.44956711476992883,0.8453635273073172,0.14657827340176594,0.06274410798707432
0.05537428984143937,0.06880654976228899,0.18120465186139598,0.4437921347240458,0.44771929770772645,0.8661336547727664,0.1446006272041936,0.06122315985707399
0.05324486386038432,0.06754093748242801,0.1778262809302014,0.437609691006765,0.4456866844194217,0.8883876219769781,0.14264955100977722,0.059762687119610275
0.05121005801793599,0.06632529118074776,0.1744631573756882,0.4314071484110219,0.44355949927777566,0.9116717344368429,0.1407391457317339,0.05835478577556135
0.04924766708352032,0.06515861314847836,0.17111117952998986,0.425238170198325,0.44123024446890863,0.9355643909322473,0.13890960406083933,0.057005216458511775
0.04735643873470753,0.06406664557444477,0.16779984297889905,0.4190671378139775,0.4386965780362594,0.960196600303235,0.1371926080384986,0.05574617696681889
0.04556853613818499,0.06305388199597182,0.1645640082560589,0.41293352803348304,0.43619046553754043,0.9859202866771272,0.13557823854056472,0.05458832063769407
0.043894567150808125,0.062111172303078735,0.16136340259669382,0.40706227270373957,0.4339003357878604,1.0125027209988042,0.13402347864147243,0.05352168230515833
0.042317824838763535,0.06123638233751211,0.1581995850557784,0.40150781277458275,0.43173878249542463,1.0391254087770023,0.1325138670404046,0.052529955833408574
0.04080886251571674,0.06038728938665742,0.15516092882479246,0.39630185968414,0.4297557926750616,1.0647713770246297,0.13105558514614404,0.0515774135062974
0.03936619151938511,0.05953016672707485,0.15225830039036622,0.3916348732463859,0.4284001659467674,1.0890838974034185,0.12964781023647204,0.05064990023551094
0.0380083817416641,0.05867287675176941,0.14942841719981959,0.3874344499965865,0.4276994358213392,1.1125387174416816,0.1283431942135409,0.04976728166759966
0.03675311416712769,0.05783631225287472,0.1466441062673857,0.383717799825287,0.42712437284951127,1.1350702340608954,0.12721874514466694,0.04895520277232489
0.035603830523520265,0.05704043808946576,0.14389270335653964,0.38053434746314563,0.426355831340603,1.1563090325510137,0.12626771922024455,0.0482046962110685
0.03453697683644929,0.0562976262831755,0.14114869089303075,0.37756981353144825,0.4254765066338947,1.176691942233103,0.12538989490483038,0.04747369511789578
0.03353662907393405,0.05561965998474242,0.1384277687924336,0.37471057144210784,0.42459235120394034,1.1965574042882396,0.12454950883826699,0.04674199972935599
0.0326209207673765,0.054997689825859696,0.1357716762340202,0.37204840937259737,0.4235840813972592,1.2154808251864946,0.12377248924760849,0.04602371853047565
0.03180711571757758,0.054416510984387434,0.13319353216041982,0.36946367187698076,0.42229760128904537,1.2330168564274884,0.12300334498845843,0.04533233395284777
0.031151744847802736,0.05387491191073072,0.13069912420481342,0.3668284566383117,0.4207796726613467,1.2491486853583709,0.12218898875441188,0.0447141463349094
0.030708729497136766,0.05339175335547992,0.12832733741996744,0.3642544766322158,0.41927582727420853,1.2639150732432685,0.12133885745480537,0.04421337330561851
0.030382351774618056,0.05297164812146497,0.12616205035331401,0.36181510130967715,0.4180142274294698,1.2778291179147727,0.12052218603143772,0.04377190828987793
0.030134428363889354,0.05257883195723586,0.12426992522840204,0.35947340653653204,0.4169855640206315,1.292191443194601,0.11982522628913929,0.04333411255261175
0.03008213645784105,0.05226598585225078,0.12260748838688519,0.35720735036968704,0.4159801289711245,1.3072294547585892,0.11922339100609991,0.04290024930431889
0.0302303970233098,0.052143597855162524,0.1211396195805397,0.35508937906163845,0.4151316026281392,1.3221370727517956,0.11864626791516382,0.0424772524749154
0.030443318522347596,0.05217676569804605,0.11987265263985525,0.3532755650544992,0.41489531635020915,1.3372398689526488,0.11812008410741806,0.04209848799696127
0.030677769741516713,0.05233863961212824,0.11876565051338761,0.35168089641631134,0.41512454537973187,1.3534775582445677,0.11769662157894696,0.04179582913874454
0.031093051630118655,0.052737131446271394,0.11779267259591078,0.35008343891321825,0.41527733440361375,1.371072641921508,0.11733839549593744,0.04157963273594119
0.03176113647365768,0.05334820202886776,0.11688197449469426,0.34838456667015744,0.4151763369535015,1.3897351951506796,0.1169894291335801,0.04145303612609678
0.03250993049237768,0.054034990390645944,0.115998299208082,0.3466571864930805,0.4148527370255347,1.4092938368591874,0.11662291318663673,0.041378838081848945
0.033248286045520756,0.054740055431797274,0.11520818509745727,0.34517164307313314,0.4143098345659391,1.4295235948619238,0.11624665009743876,0.04130803150864415
0.0341163489522898,0.05564912893577616,0.11460193250088034,0.34409269607912185,0.413530939977577,1.4493394514790343,0.11592160028626271,0.04127396715557278
0.035261421493948536,0.05699316214157788,0.11420556654184483,0.34324325508023606,0.4126006060793592,1.4677975428633594,0.11567259584376478,0.04132188290680472
0.03661687272255558,0.058638294500926565,0.11399029112234285,0.342420274000594,0.4117135187610006,1.4852198624646278,0.11545645679083633,0.04141474017808266
0.0380585905316944,0.06037596041107444,0.11396850241042449,0.3416568272958331,0.4108619691571984,1.502035758227234,0.11524521977036213,0.04153043846596796
0.03954131848150819,0.06214028751123389,0.11405826772515155,0.34106472610044547,0.40985134237614135,1.518114943390199,0.11502550378560984,0.04166118753039427
0.04100835530966652,0.06390835599642816,0.1141677352720881,0.3405234347840101,0.40856249389402616,1.5334070497188486,0.11476445965223413,0.04179952113592316
0.04245896656417293,0.06565823846007131,0.11429594318072558,0.3399042347894676,0.4071625354494042,1.5478980874419281,0.114457449406941,0.041985091858882384
0.04393258129232723,0.06734223412091513,0.11446201114972274,0.3392311674020582,0.40591839925495526,1.561201034680722,0.11412013887505265,0.04220898183697844
0.04555381029549236,0.06900169611167993,0.1147577369500494,0.33856739689155435,0.40470416780807617,1.5729668929924652,0.11380097212643628,0.04246262375063053
0.047608855589195156,0.07072969182882544,0.11520394444123228,0.33808030893156465,0.40332582115117016,1.5832243556087304,0.11357970028384706,0.04283808317304688
0.050130368730427144,0.07272883935744764,0.11573348987006736,0.33773595198378703,0.40182525160437144,1.5920424408434086,0.11343891091013703,0.0433765055600577
0.052814834307367914,0.07525954950726738,0.11634224043385263,0.33736130708422235,0.4002560209082906,1.5993280944557626,0.11332175482310171,0.04400342978644671
0.05553891810555953,0.07826284951115824,0.11711308386267663,0.33711851503112544,0.39872960308247424,1.605040587144213,0.11325406193029679,0.04466091699915301
0.05837181402925691,0.08144786469121683,0.11809840558371722,0.3371424854218262,0.39736595847061024,1.609309627193006,0.11326717786704643,0.04532026046462319
0.06135286020228413,0.08457630100409835,0.11914752885662949,0.3372477677916223,0.39612590028840033,1.612160390490481,0.11334420640782289,0.0459740570087445
0.06444599673302391,0.08763422494541385,0.12019649465165028,0.33750427247302983,0.39487822199228007,1.613457865229664,0.11346892387139944,0.046635288389766605
0.0675698208650713,0.09074878162188695,0.12145156168113434,0.3382261060604075,0.39373143454449117,1.6131746956335102,0.11362576555747658,0.04729630718615788
0.07068655340448478,0.09386770139829384,0.12299616521405501,0.33960630071865244,0.3929965005946127,1.611419959800624,0.11385329976967806,0.04795648446459244
0.07372663397795166,0.09683400660697487,0.1247761161174284,0.34154136851062206,0.3925893724941977,1.6083662759412298,0.11416829266339071,0.04859516157287167
0.07666371477769575,0.09966483744582666,0.1270335348882682,0.3436108572108848,0.3922020160800396,1.6042000728266452,0.11446635018814438,0.04920597027320202
0.07952618004766764,0.10243689364192571,0.1299795015297502,0.345479315668568,0.39177377252794354,1.5989536607943642,0.11469443290412888,0.04980290383559599
0.08228776496030495,0.10508319354032201,0.13330044006595645,0.3470533867293247,0.3914606090297608,1.5925787575164518,0.11485536145996043,0.050359245104688796
0.08491675750029178,0.10755315958050235,0.13656900623982418,0.3483175999053498,0.3913982320058606,1.5851773593149188,0.11495858471643836,0.05086953500616578
0.08750998487813712,0.10988549975975735,0.1396439153325365,0.34927751400981305,0.3913752247947799,1.576834649233676,0.11505999831140941,0.051402141652262645
0.09026707634506788,0.11213743069954811,0.14256404411104448,0.34993874007163905,0.39114920439197526,1.56747924040595,0.1151595829777541,0.05202244058302044
0.093191621082612,0.11437713213560466,0.14542021696461516,0.35034036342003644,0.39070915335022205,1.5571307432756534,0.11523057823476542,0.05269259238438482
0.09611305582644822,0.11663640299908688,0.14825257145482573,0.3505534512800849,0.3900246817705375,1.5459158501186139,0.11528752983996261,0.05336966792020853
0.09892840595444934,0.1188587240595984,0.15101929245776477,0.35058599098822224,0.38911375803866843,1.5338429228597603,0.1153243071415359,0.05414631599524582
0.10177996851012253,0.12103686955639376,0.153713875116741,0.3504658549507657,0.38814087931667,1.5209007305602502,0.11532837942612177,0.055097691198597386
0.10491748309029553,0.12339797877748325,0.15641708430107185,0.3502800253277225,0.387350371542184,1.5071529150520815,0.11528110613955257,0.05616179440643635
0.10832549420114773,0.12607222632881482,0.1591794229908476,0.3501050818230373,0.386855419903747,1.4926210145801497,0.1151713923026303,0.05737281527524952
0.11182180798703376,0.1288829596549518,0.16196222500267035,0.34999420789597996,0.3864230219757475,1.4773130164921284,0.11504885895283354,0.058823489452427706
0.11539921167046034,0.13173461659833827,0.16486220377018193,0.3500918173511492,0.38586367014046324,1.461270740078381,0.11503452865179989,0.060455200273903706
0.11923124838951608,0.1346026078137578,0.16795169892765022,0.35051578916029685,0.38522353709133483,1.4446552433901434,0.11520394457756987,0.062184959744417054
0.1234502441328678,0.13736979339080815,0.17111920276690057,0.3512916472225325,0.38464047037343674,1.427661254620346,0.11552890037197004,0.06403358087433361
0.1279283346464584,0.14001782456836753,0.1743181515696953,0.35241672272184416,0.3841927844572716,1.4102815125303294,0.11597557930348819,0.06600079960132503
0.13236244128523625,0.14256269476170783,0.17744380116038921,0.35376777849738955,0.38368113573291135,1.392476014077664,0.11651820262965838,0.06796590166521986
0.13671007885477746,0.14503317387471096,0.18044951755898922,0.3553738056439032,0.3830887398906037,1.3742804511412694,0.11715876304577459,0.06990702400531804
0.14121818791961008,0.14762400225047306,0.18344458605999972,0.35718205780139933,0.3825266530899338,1.3557694568694694,0.11797930354964664,0.07190356611222444
0.1459155584117259,0.15036087844373253,0.18649343737581087,0.3589881085920967,0.38186706774157336,1.3370280975654707,0.11903807023030552,0.07393113425017313
0.15064902567677435,0.15306766462032365,0.18959079083160754,0.36080368196078727,0.3810479980200715,1.318030990000111,0.12019665535351953,0.07596636479181731
0.15543919503766254,0.1557163113358148,0.1927181764972763,0.36263329722513943,0.38018414055581334,1.2988677621351377,0.12132256950799167,0.07802701773446555
0.16025223401030483,0.1582599863390108,0.1960049890749667,0.36455480924893024,0.37949891214548215,1.2797981422169162,0.12244288927220928,0.08011668483924225
0.16498889872538858,0.16068073769624436,0.19953473060741303,0.36660917111860913,0.3790921870377542,1.2608565307519821,0.12353003234397383,0.08221871590878156
0.16964793517979143,0.16313534708158908,0.20315303151809141,0.3686281634135113,0.3788720237204212,1.24188850302728,0.12453758921407869,0.08426368473230222
0.17423490476403397,0.16567346101403377,0.20680574842433144,0.3705110846449053,0.3787436100537211,1.22288008964615,0.125488103536811,0.08624541078415908
0.1788019984460305,0.16828231435176158,0.21063495025956874,0.37236900538695134,0.37857604978160486,1.2038981987100665,0.12642993818964413,0.08824496058237324
0.18335904263015665,0.17099643006371978,0.2147429320080469,0.3744552846225738,0.37827760248234427,1.1849265736849344,0.1273893048944359,0.09025294318056114
0.18776166945819714,0.17374175398712483,0.21906681124638658,0.37667106715783144,0.37784755820261196,1.1659028528957671,0.12829097006972892,0.09219350804556378
0.19197222316056295,0.1764206761347302,0.22328547754323838,0.3786609164432458,0.3771917615315016,1.146794178788416,0.12909645498678857,0.09406771141264171
0.19610864672864992,0.17896663621372838,0.22717210777215407,0.3803056965059309,0.376253796426356,1.1275758896483867,0.12986933522903946,0.09591674340961573
0.2002169698115325,0.1813227807174663,0.2308510399268708,0.38165893058031775,0.3751003180685452,1.108264617019818,0.13060359555507128,0.09771985490683531
0.20420084387114767,0.18348171171750852,0.234428037339997,0.382879072713216,0.3737952931146105,1.0891103678657825,0.13124003177565619,0.09943049897227314
0.20793479769953735,0.1854967167565498,0.2378773325412822,0.38415124938362133,0.3723933688197983,1.0702852736282968,0.1317689086199118,0.10103098452042276
0.21144614487937005,0.18747239428108303,0.2412746904205096,0.3854318554315644,0.3708666797709457,1.0515458245688416,0.13222781939676584,0.10251786751462195
0.21485483031597466,0.18950883524187997,0.2447594930875225,0.38651870957950957,0.36919537788985274,1.0327459277057955,0.13267284915836086,0.10392807898426674
0.21828905757172587,0.19160143302958313,0.24833126211284912,0.38735900869706136,0.3675344520450563,1.014080194787149,0.13309748552060122,0.105297019093458
0.22183800452379834,0.19364543769313475,0.25180224918127647,0.38796265590419465,0.3660655756120083,0.9957547087855225,0.13346208902146264,0.10662515971945458
0.2257874415764875,0.19568110327983929,0.25526708624760164,0.3885934186975253,0.36476844902753225,0.9780531859824081,0.1337689164669722,0.10791967757690733
0.23049056540505572,0.19778705831981586,0.25913722464617106,0.38969746869984356,0.3634697121139829,0.9615205351160733,0.13402686832390417,0.10915404019674697
0.23582985153744335,0.19993147131004252,0.26333782746632695,0.3911528833870847,0.36221080442283626,0.9465431376402093,0.13429130714274612,0.11027618237292726
0.2416855825548068,0.2022242619359354,0.26749612295557584,0.39247497184167635,0.36125196272922283,0.9327536278372106,0.1346084974041897,0.11128321148253087
0.247982860647467,0.20477042992836314,0.2715497614786919,0.3935880200897267,0.36092205662995264,0.9194517879076436,0.13499589835995585,0.11225270318945754
0.25438886429201135,0.20736261360557762,0.2756397825503371,0.3947808477470921,0.3613411643908614,0.9065423501855929,0.1354768287170742,0.11323884038199433
0.26081913859230077,0.20996288093642168,0.2798676317306457,0.3961090098822614,0.36216209215673134,0.8942413620390212,0.13599327209089013,0.11416640216040008
0.26725304890701734,0.21280237863789853,0.28421655184396644,0.3975118554674291,0.3631927509462957,0.8824072251768023,0.1364763270816867,0.1149835508619456
0.2735505066155433,0.21588802714620828,0.2886035374921837,0.39905164421797634,0.36462361020938866,0.8708104405757977,0.13692697826706432,0.11572103954466173
0.2798116509650319,0.21911254729747517,0.2928555502787402,0.4005337318035575,0.3664559551638826,0.8593783442393828,0.13739300040132155,0.11639498985011708
0.2859918995403069,0.2224667911721902,0.29692086294776476,0.4017385583568807,0.3684499332187716,0.8481616180596716,0.13792676323805408,0.11702088417485833
0.29182804892697467,0.22592851123752575,0.3009039533121341,0.40271043921061433,0.37043613243569246,0.8372285914163704,0.13856492342628834,0.11762695041067245
0.29729598821009895,0.2293024881874659,0.30471094567327855,0.4034385011770458,0.3722257665896705,0.8263702263318145,0.13925552645898728,0.11819340723268999
0.30243318331712854,0.23242881475626734,0.30815861047871096,0.40387246324393505,0.3736919308151796,0.815453356310796,0.13991539518003346,0.11867462736347636
0.30724236158572366,0.235402152054058,0.3112458623742457,0.40405811671969183,0.3748472664380573,0.8045913526163998,0.1405519140826132,0.1190805362430711
0.3118869114122835,0.23840011267240566,0.3141257880722008,0.4040127589003369,0.37585794246911275,0.7937187720357236,0.14113873952902348,0.11943407260487832
0.3165099079641656,0.2415457653613842,0.3169650797218525,0.4037732162941003,0.3770969970171099,0.7828265131217623,0.14163066279262987,0.11973048509502768
0.3210476510719369,0.24497006007667171,0.3197493900663286,0.40348187780389794,0.3786870284461267,0.7719727484825608,0.1420781347318779,0.11998534184790766
0.32534568769006544,0.24862415235144644,0.32236475909656154,0.40323487891517096,0.3803705551681739,0.7610860524659712,0.14256288648203017,0.12024700435416005
0.32940359914703915,0.25232069342791297,0.3248160034090256,0.4029101840789138,0.38194799621371633,0.7502117963296976,0.14312294572754794,0.12058846973790377
0.33334824991954554,0.25602752604607787,0.3272549797317514,0.4024312516977651,0.3835093561614306,0.7393733097910471,0.14378792895080844,0.1210259982588727
0.33712058000458633,0.2597071944922688,0.32980689963919896,0.4019322798757789,0.38515411575547065,0.7284324113108426,0.1446997255338071,0.12156167891457413
0.34075117969827157,0.2632904671949737,0.3323173003113787,0.40141462117883664,0.38681688925607677,0.7173038247627835,0.14590021722707622,0.122217473025175
0.3444566535026146,0.2668315613707955,0.33461841353631133,0.4009665048401483,0.3887226109843007,0.7060465660453964,0.1472352943673376,0.12294072609513801
0.34819674049478266,0.27031551933466164,0.336763914278022,0.4009062672311856,0.391340272149068,0.69474395448458,0.1487847368379576,0.12376792407627948
0.3517858049356175,0.273654543073274,0.33880529521785974,0.4012037388156735,0.39470326683653106,0.683435616715061,0.15075836970873174,0.12480072656436011
0.35537403568843,0.27692525277642654,0.34074511019656695,0.4016090792822803,0.398388173494818,0.6727879425616177,0.15311579594536406,0.12604925950094484
0.35919201316945887,0.2803815257169143,0.3425792141756666,0.40219744116535067,0.40226378425045917,0.664079576766574,0.15582468944628655,0.12740265334281456
0.36300543093012444,0.2842727133993182,0.34425694262302603,0.40318093948792855,0.4067927728938909,0.6580637098040771,0.1589741367388474,0.1287280114763924
0.3665901690207912,0.2886162750593581,0.34577678535042283,0.4044545361643133,0.41225661341950237,0.6549366974002486,0.16240154734750606,0.1299918429110476
0.3702067704407734,0.2931944660852754,0.3473112850332189,0.405743642798617,0.4182015624092357,0.6543553830010539,0.16586421062129322,0.13125577480960288
0.3740576235074984,0.29787900917565385,0.3491057035758431,0.40691930770613255,0.4243803367023205,0.6557149405457393,0.1692970780412255,0.1325720701938213
0.37812214479854594,0.302888082474241,0.3512539887299482,0.40817253233383705,0.43097738852273054,0.6591102350711091,0.1726780723486682,0.1339639265565017
0.38234700931759685,0.3081960611965104,0.3536250275008831,0.4098062902036878,0.4375670147856215,0.6649041678740134,0.17609310102797812,0.1355470637214165
0.38660750907987196,0.31331681470674866,0.35591935472053426,0.4119495584422201,0.4440228291401015,0.6731607440888523,0.1795440740323286,0.13734507068094864
0.3910183294426381,0.3180328988767632,0.35799768392730313,0.41505282915758324,0.4512069019675865,0.6836245700523023,0.18289237857635496,0.1392064690857528
0.39550850607231625,0.3227183875937711,0.3600278580059442,0.41914493365731276,0.45946174945460544,0.6957416657212241,0.18613255772533366,0.14105984757383241
0.39972258584272075,0.32769769863637094,0.36202338150603275,0.42330309020181545,0.4682581673983251,0.7085459418426059,0.1892728679793216,0.14293719511332995
0.40354146535438573,0.3329599423135661,0.36406406511344086,0.42723291794899876,0.4772699467751324,0.7211260003299411,0.19230793154999476,0.14479554191325644
0.40699200358137816,0.3385144868693227,0.3664334722143468,0.43124809912165407,0.4866394913703992,0.7334994974758882,0.19523939191104056,0.1466138616981969
0.4105816366139404,0.3445171022315055,0.36920194758678376,0.43543465153050337,0.4965294150416221,0.7460311913328698,0.1979886896893722,0.14858603109352814
0.4147153834985288,0.3512032739597132,0.372295988771358,0.4397810861624373,0.5068941840287605,0.7585817615279795,0.20061457436268157,0.15083049348584604
0.41901125260902744,0.358764164576107,0.37544439451796263,0.4440689943400398,0.5175560657858261,0.770864146870272,0.20333382441930925,0.15330650532077586
0.42312375361476473,0.3670809169606501,0.3784144403168094,0.44816306062318473,0.5283447645264212,0.7827577966534733,0.20625341850098716,0.1561620767788656
0.42706357061623584,0.37551091897300615,0.38130461300379553,0.4520209544291498,0.5391908658172528,0.7940742286655841,0.20926822835312064,0.15933115504328735
